timestamp,ch1 (µV),event
3.4200,-5.57,0
3.4250,-5.57,0
3.4300,18.51,0
3.4350,18.51,0
3.4400,-2.62,0
3.4450,11.32,0
3.4500,11.32,0
3.4550,17.78,0
3.4600,16.99,0
3.4650,17.78,0
3.4700,-6.26,0
3.4750,2.47,0
3.4800,-5.24,0
3.4850,9.82,0
3.4900,-1.64,0
3.4950,-5.41,0
3.5000,-5.41,0
3.5050,-3.71,0
3.5100,-3.71,0
3.5150,6.84,0
3.5200,6.84,0
3.5250,6.84,0
3.5300,6.84,0
3.5350,-4.33,0
3.5400,-4.33,0
3.5450,18.10,0
3.5500,18.10,0
3.5550,9.10,0
3.5600,9.10,0
3.5650,-3.29,0
3.5700,8.45,0
3.5750,-7.71,0
3.5800,-5.41,0
3.5850,17.28,0
3.5900,17.28,0
3.5950,13.90,0
3.6000,-3.21,0
3.6050,11.33,0
3.6100,11.33,0
3.6150,-5.82,0
3.6200,-5.82,0
3.6250,-5.82,0
3.6300,15.86,0
3.6350,15.86,0
3.6400,6.97,0
3.6450,6.97,0
3.6500,6.97,0
3.6550,6.97,0
3.6600,-6.68,0
3.6650,20.23,0
3.6700,20.23,0
3.6750,20.23,0
3.6800,5.81,0
3.6850,5.81,0
3.6900,5.81,0
3.6950,5.81,0
3.7000,-6.83,0
3.7050,8.37,0
3.7100,16.18,0
3.7150,16.18,0
3.7200,16.18,0
3.7250,-2.74,0
3.7300,-2.74,0
3.7350,9.61,0
3.7400,9.61,0
3.7450,-6.00,0
3.7500,-6.00,0
3.7550,13.87,0
3.7600,-2.44,0
3.7650,7.55,0
3.7700,7.55,0
3.7750,-7.66,0
3.7800,-10.28,0
3.7850,-8.32,0
3.7900,17.71,0
3.7950,17.71,0
3.8000,17.71,0
3.8050,-0.31,0
3.8100,8.96,0
3.8150,10.57,0
3.8200,10.57,0
3.8250,21.70,0
3.8300,21.70,0
3.8350,-3.16,0
3.8400,-3.16,0
3.8450,-10.42,0
3.8500,-3.16,0
3.8550,10.94,0
3.8600,-6.70,0
3.8650,-6.70,0
3.8700,-4.58,0
3.8750,-4.58,0
3.8800,8.57,0
3.8850,8.57,0
3.8900,8.57,0
3.8950,17.56,0
3.9000,-5.60,0
3.9050,-5.60,0
3.9100,19.06,0
3.9150,19.06,0
3.9200,11.15,0
3.9250,11.15,0
3.9300,9.41,0
3.9350,9.41,0
3.9400,9.41,0
3.9450,-4.34,0
3.9500,-4.34,0
3.9550,15.49,0
3.9600,16.98,0
3.9650,-4.68,0
3.9700,-4.68,0
3.9750,9.66,0
3.9800,2.04,0
3.9850,-8.62,0
3.9900,-8.62,0
3.9950,18.03,0
4.0000,18.03,0
4.0050,-2.11,0
4.0100,6.42,0
4.0150,6.42,0
4.0200,-3.68,0
4.0250,25.48,0
4.0300,4.25,0
4.0350,-4.68,0
4.0400,-0.39,0
4.0450,-0.39,0
4.0500,16.84,0
4.0550,19.45,0
4.0600,14.02,0
4.0650,14.02,0
4.0700,2.71,0
4.0750,2.71,0
4.0800,16.03,0
4.0850,16.03,0
4.0900,-6.11,0
4.0950,-6.11,0
4.1000,17.40,0
4.1050,17.40,0
4.1100,1.35,0
4.1150,1.35,0
4.1200,1.35,0
4.1250,1.35,0
4.1300,-7.74,0
4.1350,-7.74,0
4.1400,14.14,0
4.1450,14.14,0
4.1500,0.85,0
4.1550,-9.76,0
4.1600,0.54,0
4.1650,6.84,0
4.1700,12.97,0
4.1750,7.43,0
4.1800,16.77,0
4.1850,16.77,0
4.1900,0.93,0
4.1950,0.93,0
4.2000,-6.63,0
4.2050,0.93,0
4.2100,0.93,0
4.2150,0.93,0
4.2200,14.14,0
4.2250,16.03,0
4.2300,0.91,0
4.2350,0.91,0
4.2400,3.01,0
4.2450,0.86,0
4.2500,-7.86,0
4.2550,-7.86,0
4.2600,15.42,0
4.2650,15.42,0
4.2700,15.42,0
4.2750,15.42,0
4.2800,0.07,0
4.2850,0.07,0
4.2900,14.85,0
4.2950,14.85,0
4.3000,13.63,0
4.3050,13.63,0
4.3100,1.53,0
4.3150,1.53,0
4.3200,1.53,0
4.3250,1.53,0
4.3300,15.45,0
4.3350,15.45,0
4.3400,15.45,0
4.3450,15.45,0
4.3500,13.38,0
4.3550,13.38,0
4.3600,1.83,0
4.3650,1.83,0
4.3700,14.39,0
4.3750,14.39,0
4.3800,-7.13,0
4.3850,-7.13,0
4.3900,16.21,0
4.3950,-4.84,0
4.4000,0.63,0
4.4050,0.63,0
4.4100,14.28,0
4.4150,14.28,0
4.4200,-8.06,0
4.4250,-8.06,0
4.4300,0.50,0
4.4350,0.50,0
4.4400,0.50,0
4.4450,0.50,0
4.4500,17.38,0
4.4550,17.38,0
4.4600,-7.35,0
4.4650,0.63,0
4.4700,15.93,0
4.4750,1.06,0
4.4800,1.06,0
4.4850,1.06,0
4.4900,13.37,0
4.4950,1.06,0
4.5000,16.26,0
4.5050,15.32,0
4.5100,7.66,0
4.5150,15.32,0
4.5200,15.32,0
4.5250,16.48,0
4.5300,-11.30,0
4.5350,11.91,0
4.5400,-0.03,0
4.5450,11.96,0
4.5500,11.96,0
4.5550,11.96,0
4.5600,11.96,0
4.5650,0.34,0
4.5700,0.34,0
4.5750,-8.46,0
4.5800,9.47,0
4.5850,-8.46,0
4.5900,-8.46,0
4.5950,3.07,0
4.6000,-1.10,0
4.6050,2.74,0
4.6100,2.74,0
4.6150,2.74,0
4.6200,2.74,0
4.6250,-5.91,0
4.6300,-5.91,0
4.6350,15.46,0
4.6400,3.76,0
4.6450,3.76,0
4.6500,14.35,0
4.6550,14.35,0
4.6600,14.35,0
4.6650,14.35,0
4.6700,16.30,0
4.6750,16.30,0
4.6800,0.60,0
4.6850,0.60,0
4.6900,14.70,0
4.6950,14.70,0
4.7000,-5.62,0
4.7050,-5.62,0
4.7100,15.08,0
4.7150,15.08,0
4.7200,15.08,0
4.7250,1.72,0
4.7300,-8.63,0
4.7350,3.84,0
4.7400,3.84,0
4.7450,-7.21,0
4.7500,-7.21,0
4.7550,-7.21,0
4.7600,-7.21,0
4.7650,13.80,0
4.7700,13.80,0
4.7750,14.17,0
4.7800,14.17,0
4.7850,14.17,0
4.7900,14.17,0
4.7950,15.40,0
4.8000,15.40,0
4.8050,-1.43,0
4.8100,9.48,0
4.8150,13.92,0
4.8200,-5.43,0
4.8250,-7.90,0
4.8300,-7.90,0
4.8350,-8.76,0
4.8400,-8.76,0
4.8450,0.07,0
4.8500,2.54,0
4.8550,-6.09,0
4.8600,-6.09,0
4.8650,9.05,0
4.8700,8.96,0
4.8750,8.96,0
4.8800,17.08,0
4.8850,17.08,0
4.8900,17.08,0
4.8950,17.08,0
4.9000,17.08,0
4.9050,11.13,0
4.9100,11.13,0
4.9150,11.13,0
4.9200,11.13,0
4.9250,-4.55,0
4.9300,-4.55,0
4.9350,-7.86,0
4.9400,-7.86,0
4.9450,-7.86,0
4.9500,-7.86,0
4.9550,11.13,0
4.9600,8.70,0
4.9650,-5.34,0
4.9700,-5.34,0
4.9750,-0.61,0
4.9800,-5.40,0
4.9850,10.88,0
4.9900,10.88,0
4.9950,5.25,0
5.0000,5.25,0
5.0050,12.86,0
5.0100,3.80,0
5.0150,21.18,0
5.0200,21.18,0
5.0250,11.90,0
5.0300,11.90,0
5.0350,-7.38,0
5.0400,4.38,0
5.0450,15.75,0
5.0500,14.35,0
5.0550,-5.31,0
5.0600,-5.31,0
5.0650,13.42,0
5.0700,13.42,0
5.0750,8.66,0
5.0800,8.66,0
5.0850,8.66,0
5.0900,8.66,0
5.0950,8.66,0
5.1000,19.78,0
5.1050,-4.52,0
5.1100,10.72,0
5.1150,10.72,0
5.1200,6.80,0
5.1250,17.30,0
5.1300,17.30,0
5.1350,17.30,0
5.1400,17.30,0
5.1450,17.30,0
5.1500,10.94,0
5.1550,10.94,0
5.1600,8.28,0
5.1650,8.28,0
5.1700,8.28,0
5.1750,8.28,0
5.1800,8.28,0
5.1850,10.88,0
5.1900,10.88,0
5.1950,10.88,0
5.2000,5.29,0
5.2050,5.29,0
5.2100,-4.72,0
5.2150,-4.72,0
5.2200,-5.69,0
5.2250,10.12,0
5.2300,10.12,0
5.2350,10.12,0
5.2400,10.12,0
5.2450,10.12,0
5.2500,10.12,0
5.2550,10.12,0
5.2600,19.48,0
5.2650,19.48,0
5.2700,10.37,0
5.2750,6.34,0
5.2800,7.60,0
5.2850,19.48,0
5.2900,7.60,0
5.2950,20.09,0
5.3000,20.09,0
5.3050,-6.54,0
5.3100,-6.54,0
5.3150,-6.54,0
5.3200,5.56,0
5.3250,5.56,0
5.3300,-6.44,0
5.3350,-6.44,0
5.3400,16.58,0
5.3450,16.58,0
5.3500,11.81,0
5.3550,11.81,0
5.3600,11.81,0
5.3650,11.81,0
5.3700,-3.23,0
5.3750,-8.64,0
5.3800,-3.23,0
5.3850,20.17,0
5.3900,20.17,0
5.3950,20.17,0
5.4000,8.07,0
5.4050,8.07,0
5.4100,8.07,0
5.4150,16.69,0
5.4200,16.69,0
5.4250,16.69,0
5.4300,16.69,0
5.4350,0.20,0
5.4400,9.49,0
5.4450,-6.69,0
5.4500,-1.30,0
5.4550,-1.30,0
5.4600,-1.30,0
5.4650,-1.30,0
5.4700,-1.30,0
5.4750,-1.30,0
5.4800,10.07,0
5.4850,-4.19,0
5.4900,-9.03,0
5.4950,20.52,0
5.5000,20.52,0
5.5050,20.52,0
5.5100,20.52,0
5.5150,20.52,0
5.5200,20.52,0
5.5250,20.52,0
5.5300,5.47,0
5.5350,5.47,0
5.5400,17.16,0
5.5450,17.16,0
5.5500,-8.27,0
5.5550,-8.27,0
5.5600,12.88,0
5.5650,-1.94,0
5.5700,-1.94,0
5.5750,-1.94,0
5.5800,-1.94,0
5.5850,-7.88,0
5.5900,-7.88,0
5.5950,13.75,0
5.6000,11.56,0
5.6050,11.56,0
5.6100,-0.83,0
5.6150,18.09,0
5.6200,18.09,0
5.6250,18.09,0
5.6300,18.09,0
5.6350,-2.51,0
5.6400,13.24,0
5.6450,4.96,0
5.6500,4.96,0
5.6550,-1.43,0
5.6600,13.24,0
5.6650,17.82,0
5.6700,12.39,0
5.6750,12.39,0
5.6800,-7.13,0
5.6850,-7.13,0
5.6900,3.32,0
5.6950,-7.13,0
5.7000,-7.13,0
5.7050,-3.12,0
5.7100,-3.12,0
5.7150,-2.97,0
5.7200,-10.48,0
5.7250,-10.48,0
5.7300,15.21,0
5.7350,15.21,0
5.7400,15.21,0
5.7450,6.68,0
5.7500,4.14,0
5.7550,4.14,0
5.7600,12.30,0
5.7650,16.39,0
5.7700,16.39,0
5.7750,17.09,0
5.7800,16.39,0
5.7850,16.39,0
5.7900,-7.14,0
5.7950,11.60,0
5.8000,11.60,0
5.8050,-6.09,0
5.8100,-6.09,0
5.8150,-6.09,0
5.8200,11.92,0
5.8250,1.88,0
5.8300,1.88,0
5.8350,1.88,0
5.8400,1.88,0
5.8450,1.88,0
5.8500,-6.59,0
5.8550,-6.59,0
5.8600,16.27,0
5.8650,16.27,0
5.8700,3.71,0
5.8750,3.71,0
5.8800,13.42,0
5.8850,3.71,0
5.8900,-7.75,0
5.8950,-7.75,0
5.9000,16.19,0
5.9050,-1.40,0
5.9100,-1.40,0
5.9150,15.87,0
5.9200,15.87,0
5.9250,-7.67,0
5.9300,-7.67,0
5.9350,-7.67,0
5.9400,16.72,0
5.9450,16.72,0
5.9500,-1.03,0
5.9550,-1.03,0
5.9600,8.43,0
5.9650,8.43,0
5.9700,-5.44,0
5.9750,-5.44,0
5.9800,-2.97,0
5.9850,15.21,0
5.9900,-0.32,0
5.9950,-0.32,0
6.0000,12.95,0
6.0050,12.95,0
6.0100,12.95,0
6.0150,12.95,0
6.0200,17.16,0
6.0250,17.16,0
6.0300,-1.39,0
6.0350,-0.79,0
6.0400,12.78,0
6.0450,12.78,0
6.0500,-8.32,0
6.0550,-8.32,0
6.0600,4.92,0
6.0650,14.85,0
6.0700,-0.51,0
6.0750,-0.51,0
6.0800,-7.32,0
6.0850,4.04,0
6.0900,-5.20,0
6.0950,17.36,0
6.1000,17.36,0
6.1050,-0.66,0
6.1100,-0.66,0
6.1150,-0.66,0
6.1200,5.86,0
6.1250,5.86,0
6.1300,12.04,0
6.1350,12.04,0
6.1400,16.85,0
6.1450,16.85,0
6.1500,16.85,0
6.1550,16.85,0
6.1600,-3.70,0
6.1650,11.71,0
6.1700,11.71,0
6.1750,11.71,0
6.1800,-7.47,0
6.1850,-3.04,0
6.1900,-3.04,0
6.1950,5.49,0
6.2000,5.49,0
6.2050,10.80,0
6.2100,10.80,0
6.2150,-6.85,0
6.2200,-6.85,0
6.2250,16.87,0
6.2300,-7.47,0
6.2350,5.38,0
6.2400,5.38,0
6.2450,-4.38,0
6.2500,12.30,0
6.2550,17.15,0
6.2600,-7.14,0
6.2650,-7.14,0
6.2700,-2.00,0
6.2750,-2.00,0
6.2800,-2.00,0
6.2850,-2.00,0
6.2900,-2.00,0
6.2950,-2.00,0
6.3000,-9.74,0
6.3050,-9.74,0
6.3100,-5.62,0
6.3150,-5.62,0
6.3200,8.77,0
6.3250,8.77,0
6.3300,8.77,0
6.3350,8.77,0
6.3400,-6.91,0
6.3450,15.32,0
6.3500,12.00,0
6.3550,15.32,0
6.3600,7.54,0
6.3650,7.54,0
6.3700,7.54,0
6.3750,7.54,0
6.3800,7.54,0
6.3850,18.38,0
6.3900,18.38,0
6.3950,-3.14,0
6.4000,-3.14,0
6.4050,12.37,0
6.4100,12.37,0
6.4150,12.37,0
6.4200,12.37,0
6.4250,-6.87,0
6.4300,-6.87,0
6.4350,-2.56,0
6.4400,15.32,0
6.4450,3.38,0
6.4500,3.38,0
6.4550,4.36,0
6.4600,-8.21,0
6.4650,19.34,0
6.4700,19.34,0
6.4750,7.82,0
6.4800,7.82,0
6.4850,-6.99,0
6.4900,-6.99,0
6.4950,10.54,0
6.5000,10.54,0
6.5050,2.92,0
6.5100,2.92,0
6.5150,18.64,0
6.5200,18.64,0
6.5250,-7.77,0
6.5300,-7.77,0
6.5350,6.37,0
6.5400,6.37,0
6.5450,-3.51,0
6.5500,-3.51,0
6.5550,-3.51,0
6.5600,-3.51,0
6.5650,-3.51,0
6.5700,-4.39,0
6.5750,-4.39,0
6.5800,12.16,0
6.5850,12.16,0
6.5900,-3.18,0
6.5950,-3.18,0
6.6000,-9.46,0
6.6050,-3.18,0
6.6100,-3.18,0
6.6150,14.78,0
6.6200,14.78,0
6.6250,14.78,0
6.6300,14.78,0
6.6350,14.78,0
6.6400,16.82,0
6.6450,16.82,0
6.6500,-6.01,0
6.6550,-6.01,0
6.6600,13.73,0
6.6650,18.15,0
6.6700,3.18,0
6.6750,3.18,0
6.6800,12.87,0
6.6850,-3.70,0
6.6900,-5.67,0
6.6950,-5.67,0
6.7000,12.32,0
6.7050,12.32,0
6.7100,4.29,0
6.7150,4.29,0
6.7200,-0.66,0
6.7250,-0.66,0
6.7300,16.29,0
6.7350,16.29,0
6.7400,12.74,0
6.7450,12.74,0
6.7500,-7.58,0
6.7550,12.74,0
6.7600,12.74,0
6.7650,12.74,0
6.7700,12.74,0
6.7750,12.74,0
6.7800,-5.76,0
6.7850,-5.76,0
6.7900,0.68,0
6.7950,0.68,0
6.8000,-1.02,0
6.8050,10.64,0
6.8100,19.02,0
6.8150,-6.15,0
6.8200,12.31,0
6.8250,12.31,0
6.8300,12.31,0
6.8350,12.31,0
6.8400,0.18,0
6.8450,0.18,0
6.8500,16.74,0
6.8550,16.74,0
6.8600,14.20,0
6.8650,14.20,0
6.8700,14.20,0
6.8750,14.20,0
6.8800,14.20,0
6.8850,19.13,0
6.8900,19.13,0
6.8950,19.13,0
6.9000,-9.17,0
6.9050,-9.17,0
6.9100,5.27,0
6.9150,5.27,0
6.9200,-2.51,0
6.9250,-2.51,0
6.9300,16.40,0
6.9350,16.40,0
6.9400,8.46,0
6.9450,12.77,0
6.9500,15.63,0
6.9550,-0.26,0
6.9600,-0.26,0
6.9650,-0.26,0
6.9700,20.84,0
6.9750,20.84,0
6.9800,-6.83,0
6.9850,-6.83,0
6.9900,13.94,0
6.9950,13.94,0
7.0000,1.03,0
7.0050,1.03,0
7.0100,18.53,0
7.0150,-8.60,0
7.0200,-8.60,0
7.0250,-8.60,0
7.0300,-8.60,0
7.0350,-2.16,0
7.0400,8.57,0
7.0450,4.30,0
7.0500,-2.44,0
7.0550,-2.44,0
7.0600,-2.44,0
7.0650,-2.44,0
7.0700,17.77,0
7.0750,17.77,0
7.0800,-3.75,0
7.0850,-3.19,0
7.0900,-3.19,0
7.0950,-6.61,0
7.1000,19.09,0
7.1050,19.09,0
7.1100,12.68,0
7.1150,12.68,0
7.1200,4.92,0
7.1250,4.92,0
7.1300,1.11,0
7.1350,1.11,0
7.1400,20.37,0
7.1450,20.37,0
7.1500,-7.06,0
7.1550,-7.06,0
7.1600,1.66,0
7.1650,4.47,0
7.1700,-1.10,0
7.1750,-1.10,0
7.1800,18.01,0
7.1850,18.01,0
7.1900,-8.72,0
7.1950,-8.72,0
7.2000,10.81,0
7.2050,-8.72,0
7.2100,1.00,0
7.2150,17.69,0
7.2200,17.69,0
7.2250,17.69,0
7.2300,-4.24,0
7.2350,-4.24,0
7.2400,15.27,0
7.2450,15.27,0
7.2500,6.24,0
7.2550,17.72,0
7.2600,17.72,0
7.2650,17.72,0
7.2700,-7.49,0
7.2750,-7.49,0
7.2800,12.68,0
7.2850,17.72,0
7.2900,-7.49,0
7.2950,-0.90,0
7.3000,-1.16,0
7.3050,-1.16,0
7.3100,-1.16,0
7.3150,-1.16,0
7.3200,-7.58,0
7.3250,-7.58,0
7.3300,-8.48,0
7.3350,-8.48,0
7.3400,16.03,0
7.3450,16.03,0
7.3500,5.09,0
7.3550,5.09,0
7.3600,11.17,0
7.3650,10.43,0
7.3700,16.86,0
7.3750,16.86,0
7.3800,-0.58,0
7.3850,-0.58,0
7.3900,7.18,0
7.3950,7.18,0
7.4000,10.79,0
7.4050,10.79,0
7.4100,-9.25,0
7.4150,-9.25,0
7.4200,-5.82,0
7.4250,-5.82,0
7.4300,6.46,0
7.4350,6.46,0
7.4400,-8.04,0
7.4450,-2.71,0
7.4500,11.22,0
7.4550,18.91,0
7.4600,18.91,0
7.4650,18.91,0
7.4700,5.15,0
7.4750,5.15,0
7.4800,8.79,0
7.4850,8.79,0
7.4900,17.09,0
7.4950,-0.95,0
7.5000,-0.95,0
7.5050,-0.95,0
7.5100,-0.95,0
7.5150,-0.95,0
7.5200,-0.95,0
7.5250,-2.00,0
7.5300,11.22,0
7.5350,3.46,0
7.5400,-5.90,0
7.5450,-5.90,0
7.5500,14.11,0
7.5550,7.00,0
7.5600,7.00,0
7.5650,7.00,0
7.5700,-4.62,0
7.5750,-4.62,0
7.5800,-5.90,0
7.5850,19.00,0
7.5900,8.26,0
7.5950,-5.90,0
7.6000,11.00,0
7.6050,-7.15,0
7.6100,-5.96,0
7.6150,-5.96,0
7.6200,17.07,0
7.6250,17.07,0
7.6300,-3.09,0
7.6350,-3.09,0
7.6400,9.63,0
7.6450,3.13,0
7.6500,-9.09,0
7.6550,-9.09,0
7.6600,14.61,0
7.6650,-2.93,0
7.6700,6.57,0
7.6750,6.57,0
7.6800,6.57,0
7.6850,6.57,0
7.6900,-5.53,0
7.6950,-5.53,0
7.7000,13.91,0
7.7050,9.32,0
7.7100,9.32,0
7.7150,11.97,0
7.7200,11.97,0
7.7250,11.97,0
7.7300,11.97,0
7.7350,11.97,0
7.7400,11.97,0
7.7450,-2.61,0
7.7500,-2.61,0
7.7550,-2.61,0
7.7600,9.38,0
7.7650,-3.52,0
7.7700,-6.38,0
7.7750,-6.38,0
7.7800,-6.38,0
7.7850,-6.38,0
7.7900,-6.38,0
7.7950,-6.38,0
7.8000,13.37,0
7.8050,13.37,0
7.8100,13.37,0
7.8150,13.37,0
7.8200,16.09,0
7.8250,16.09,0
7.8300,10.50,0
7.8350,10.50,0
7.8400,9.71,0
7.8450,9.71,0
7.8500,9.71,0
7.8550,9.71,0
7.8600,17.54,0
7.8650,17.54,0
7.8700,-3.76,0
7.8750,-3.76,0
7.8800,14.21,0
7.8850,14.21,0
7.8900,-8.25,0
7.8950,-8.25,0
7.9000,15.17,0
7.9050,15.17,0
7.9100,15.17,0
7.9150,-1.03,0
7.9200,-1.03,0
7.9250,6.85,0
7.9300,6.85,0
7.9350,6.85,0
7.9400,-4.32,0
7.9450,-4.32,0
7.9500,7.43,0
7.9550,7.43,0
7.9600,9.70,0
7.9650,9.70,0
7.9700,7.43,0
7.9750,9.70,0
7.9800,9.70,0
7.9850,18.14,0
7.9900,-3.07,0
7.9950,-4.80,0
8.0000,-4.80,0
8.0050,10.55,0
8.0100,10.55,0
8.0150,-5.97,0
8.0200,-5.97,0
8.0250,-5.97,0
8.0300,-5.97,0
8.0350,-7.34,0
8.0400,-1.70,0
8.0450,8.55,0
8.0500,8.55,0
8.0550,-6.04,0
8.0600,-6.04,0
8.0650,-6.04,0
8.0700,-6.04,0
8.0750,-6.04,0
8.0800,-6.04,0
8.0850,5.86,0
8.0900,12.04,0
8.0950,12.04,0
8.1000,12.04,0
8.1050,19.34,0
8.1100,19.34,0
8.1150,-2.82,0
8.1200,-2.82,0
8.1250,8.53,0
8.1300,8.53,0
8.1350,10.82,0
8.1400,10.82,0
8.1450,0.98,0
8.1500,0.98,0
8.1550,0.57,0
8.1600,0.57,0
8.1650,-7.63,0
8.1700,-7.63,0
8.1750,13.21,0
8.1800,13.21,0
8.1850,-7.63,0
8.1900,12.71,0
8.1950,0.99,0
8.2000,0.99,0
8.2050,15.30,0
8.2100,15.30,0
8.2150,15.30,0
8.2200,15.30,0
8.2250,-5.67,0
8.2300,-10.07,0
8.2350,13.59,0
8.2400,13.59,0
8.2450,13.59,0
8.2500,-7.63,0
8.2550,-7.33,0
8.2600,-7.33,0
8.2650,0.71,0
8.2700,0.71,0
8.2750,1.04,0
8.2800,1.04,0
8.2850,16.46,0
8.2900,16.46,0
8.2950,-5.35,0
8.3000,17.23,0
8.3050,13.82,0
8.3100,0.07,0
8.3150,0.07,0
8.3200,14.45,0
8.3250,14.45,0
8.3300,15.26,0
8.3350,-8.55,0
8.3400,13.90,0
8.3450,13.90,0
8.3500,-0.64,0
8.3550,-0.64,0
8.3600,19.56,0
8.3650,-14.94,0
8.3700,19.56,0
8.3750,-9.26,0
8.3800,16.97,0
8.3850,3.36,0
8.3900,8.04,0
8.3950,0.13,0
8.4000,0.13,0
8.4050,0.13,0
8.4100,-6.53,0
8.4150,-6.22,0
8.4200,10.91,0
8.4250,10.91,1
8.4300,2.63,0
8.4350,2.63,0
8.4400,2.63,0
8.4450,17.57,0
8.4500,17.57,0
8.4550,-9.45,0
8.4600,-9.45,0
8.4650,14.54,0
8.4700,14.54,0
8.4750,2.25,0
8.4800,2.25,0
8.4850,17.46,0
8.4900,-7.43,0
8.4950,-7.43,0
8.5000,-7.43,0
8.5050,15.79,0
8.5100,3.37,0
8.5150,19.50,0
8.5200,2.09,0
8.5250,2.09,0
8.5300,-5.47,0
8.5350,-2.88,0
8.5400,0.67,0
8.5450,14.45,0
8.5500,14.45,0
8.5550,14.45,0
8.5600,14.45,0
8.5650,14.45,0
8.5700,21.03,0
8.5750,15.52,0
8.5800,13.59,0
8.5850,13.59,0
8.5900,1.48,0
8.5950,1.48,0
8.6000,15.00,0
8.6050,15.00,0
8.6100,15.00,0
8.6150,-5.96,0
8.6200,-5.96,0
8.6250,-5.96,0
8.6300,-5.96,0
8.6350,3.85,0
8.6400,-2.88,0
8.6450,3.85,0
8.6500,3.85,0
8.6550,-2.77,0
8.6600,-2.77,0
8.6650,14.35,0
8.6700,4.22,0
8.6750,4.22,0
8.6800,9.87,0
8.6850,17.01,0
8.6900,4.22,0
8.6950,13.59,0
8.7000,13.59,0
8.7050,15.62,0
8.7100,15.62,0
8.7150,10.78,0
8.7200,10.78,0
8.7250,17.95,0
8.7300,17.95,0
8.7350,-10.21,0
8.7400,-10.21,0
8.7450,-10.21,0
8.7500,-10.21,0
8.7550,-1.25,0
8.7600,-1.25,0
8.7650,2.74,0
8.7700,2.74,0
8.7750,-2.74,0
8.7800,16.37,0
8.7850,7.49,0
8.7900,7.49,0
8.7950,7.49,0
8.8000,7.49,0
8.8050,1.81,0
8.8100,1.81,0
8.8150,7.16,0
8.8200,10.97,0
8.8250,8.81,0
8.8300,8.81,0
8.8350,4.42,0
8.8400,4.42,0
8.8450,1.35,0
8.8500,1.35,0
8.8550,10.76,0
8.8600,9.95,0
8.8650,-0.25,0
8.8700,-0.25,0
8.8750,4.14,0
8.8800,4.14,0
8.8850,0.72,0
8.8900,0.72,0
8.8950,0.72,0
8.9000,-3.61,0
8.9050,-3.61,0
8.9100,6.24,0
8.9150,6.24,0
8.9200,6.24,0
8.9250,3.22,0
8.9300,3.22,0
8.9350,12.04,0
8.9400,4.28,0
8.9450,-3.74,0
8.9500,-3.74,0
8.9550,10.03,0
8.9600,10.20,0
8.9650,10.20,0
8.9700,10.20,0
8.9750,-0.96,0
8.9800,-0.96,0
8.9850,11.88,0
8.9900,12.04,0
8.9950,-0.59,0
9.0000,-0.59,0
9.0050,11.52,0
9.0100,11.52,0
9.0150,-0.78,0
9.0200,-0.78,0
9.0250,-0.78,0
9.0300,5.36,0
9.0350,5.93,0
9.0400,11.86,0
9.0450,11.86,0
9.0500,11.86,0
9.0550,6.23,0
9.0600,8.77,0
9.0650,8.77,0
9.0700,7.73,0
9.0750,7.73,0
9.0800,16.12,0
9.0850,16.12,0
9.0900,12.77,0
9.0950,-0.17,0
9.1000,9.98,0
9.1050,7.35,0
9.1100,-3.70,0
9.1150,-3.70,0
9.1200,-3.70,0
9.1250,-3.70,0
9.1300,-3.70,0
9.1350,-3.70,0
9.1400,2.08,0
9.1450,2.08,0
9.1500,-3.44,0
9.1550,-3.44,0
9.1600,16.11,0
9.1650,16.11,0
9.1700,16.11,0
9.1750,5.48,0
9.1800,8.82,0
9.1850,8.82,0
9.1900,8.82,0
9.1950,9.60,0
9.2000,13.12,0
9.2050,13.12,0
9.2100,13.12,0
9.2150,-4.14,0
9.2200,-4.14,0
9.2250,6.73,0
9.2300,6.73,0
9.2350,6.67,0
9.2400,6.67,0
9.2450,7.40,0
9.2500,-3.30,0
9.2550,-0.41,0
9.2600,6.52,0
9.2650,6.52,0
9.2700,-2.35,0
9.2750,-2.35,0
9.2800,12.60,0
9.2850,17.06,0
9.2900,17.06,0
9.2950,17.06,0
9.3000,7.56,0
9.3050,7.56,0
9.3100,7.24,0
9.3150,7.24,0
9.3200,17.13,0
9.3250,17.13,0
9.3300,-0.32,0
9.3350,-0.32,0
9.3400,-0.32,0
9.3450,-0.32,0
9.3500,8.12,0
9.3550,8.12,0
9.3600,-3.69,0
9.3650,-3.69,0
9.3700,-1.57,0
9.3750,-1.57,0
9.3800,7.20,0
9.3850,3.67,0
9.3900,9.82,0
9.3950,9.82,0
9.4000,-3.57,0
9.4050,17.54,0
9.4100,14.29,0
9.4150,14.29,0
9.4200,-4.26,0
9.4250,8.08,0
9.4300,8.12,0
9.4350,8.20,0
9.4400,-2.98,0
9.4450,-2.98,0
9.4500,2.64,0
9.4550,-2.78,0
9.4600,-2.78,0
9.4650,-2.78,0
9.4700,10.58,0
9.4750,10.58,0
9.4800,-7.81,0
9.4850,-3.57,0
9.4900,-1.42,0
9.4950,-1.42,0
9.5000,7.47,0
9.5050,7.47,0
9.5100,10.02,0
9.5150,-1.37,0
9.5200,-3.56,0
9.5250,-3.82,0
9.5300,17.67,0
9.5350,17.50,0
9.5400,15.71,0
9.5450,-4.31,0
9.5500,8.71,0
9.5550,8.71,0
9.5600,-4.95,0
9.5650,-4.95,0
9.5700,-3.43,0
9.5750,-3.43,0
9.5800,-3.43,0
9.5850,-3.43,0
9.5900,10.46,0
9.5950,10.46,0
9.6000,-3.12,0
9.6050,-3.12,0
9.6100,-3.12,0
9.6150,-3.12,0
9.6200,-3.12,0
9.6250,18.54,0
9.6300,18.54,0
9.6350,18.54,0
9.6400,2.10,0
9.6450,-5.62,0
9.6500,-5.62,0
9.6550,14.43,0
9.6600,14.43,0
9.6650,7.81,0
9.6700,7.81,0
9.6750,6.80,0
9.6800,6.80,0
9.6850,20.11,0
9.6900,-5.09,0
9.6950,-3.95,0
9.7000,-5.09,0
9.7050,-5.09,0
9.7100,-5.09,0
9.7150,8.14,0
9.7200,-5.25,0
9.7250,0.93,0
9.7300,-0.23,0
9.7350,0.59,0
9.7400,-0.23,0
9.7450,8.83,0
9.7500,8.83,0
9.7550,8.83,0
9.7600,8.83,0
9.7650,-3.05,0
9.7700,-0.60,0
9.7750,-0.60,0
9.7800,-0.60,0
9.7850,11.54,0
9.7900,11.54,0
9.7950,-6.59,0
9.8000,-6.59,0
9.8050,11.61,0
9.8100,11.61,0
9.8150,-1.00,0
9.8200,15.25,0
9.8250,14.66,0
9.8300,13.73,0
9.8350,-5.17,0
9.8400,12.89,0
9.8450,0.59,0
9.8500,12.89,0
9.8550,1.66,0
9.8600,1.66,0
9.8650,-7.72,0
9.8700,1.66,0
9.8750,-5.79,0
9.8800,10.43,0
9.8850,10.43,0
9.8900,10.43,0
9.8950,10.43,0
9.9000,10.43,0
9.9050,10.43,0
9.9100,3.86,0
9.9150,9.55,0
9.9200,11.69,0
9.9250,11.69,0
9.9300,2.64,0
9.9350,2.64,0
9.9400,15.56,0
9.9450,15.56,0
9.9500,-7.50,0
9.9550,-7.61,0
9.9600,-7.50,0
9.9650,-7.50,0
9.9700,2.69,0
9.9750,2.69,0
9.9800,2.69,0
9.9850,2.69,0
9.9900,2.69,0
9.9950,12.55,0
10.0000,12.55,0
10.0050,14.40,0
10.0100,14.40,0
10.0150,2.68,0
10.0200,2.68,0
10.0250,0.57,0
10.0300,0.57,0
10.0350,-2.01,0
10.0400,0.57,0
10.0450,14.65,0
10.0500,14.65,0
10.0550,2.13,0
10.0600,5.09,0
10.0650,5.09,0
10.0700,13.37,0
10.0750,13.37,0
10.0800,-3.64,0
10.0850,3.37,0
10.0900,1.89,0
10.0950,1.89,0
10.1000,0.83,0
10.1050,0.83,0
10.1100,14.96,0
10.1150,14.96,0
10.1200,-5.10,0
10.1250,-5.10,0
10.1300,-5.10,0
10.1350,11.66,0
10.1400,0.74,0
10.1450,0.74,0
10.1500,15.33,0
10.1550,15.33,0
10.1600,12.85,0
10.1650,12.85,0
10.1700,0.58,0
10.1750,0.58,0
10.1800,10.17,0
10.1850,0.58,0
10.1900,0.58,0
10.1950,0.58,0
10.2000,-4.54,0
10.2050,-4.54,0
10.2100,0.09,0
10.2150,0.09,0
10.2200,0.09,0
10.2250,2.28,0
10.2300,2.28,0
10.2350,13.97,0
10.2400,13.97,0
10.2450,13.78,0
10.2500,13.78,0
10.2550,13.78,0
10.2600,13.78,0
10.2650,2.81,0
10.2700,2.81,0
10.2750,16.00,0
10.2800,16.00,0
10.2850,12.88,0
10.2900,12.88,0
10.2950,12.88,0
10.3000,12.88,0
10.3050,12.88,0
10.3100,14.77,0
10.3150,14.77,0
10.3200,-7.00,0
10.3250,-7.00,0
10.3300,-7.00,0
10.3350,1.16,0
10.3400,1.16,0
10.3450,0.60,0
10.3500,14.60,0
10.3550,14.60,0
10.3600,14.60,0
10.3650,-5.01,0
10.3700,-5.01,0
10.3750,12.37,0
10.3800,12.37,0
10.3850,1.14,0
10.3900,1.04,0
10.3950,12.55,0
10.4000,12.55,0
10.4050,-6.05,0
10.4100,3.49,0
10.4150,3.49,0
10.4200,3.49,0
10.4250,3.49,0
10.4300,8.80,0
10.4350,15.28,0
10.4400,15.28,0
10.4450,-4.26,0
10.4500,-4.26,0
10.4550,1.82,0
10.4600,1.82,0
10.4650,2.13,0
10.4700,2.13,0
10.4750,2.13,0
10.4800,2.13,0
10.4850,2.13,0
10.4900,2.13,0
10.4950,11.56,0
10.5000,1.40,0
10.5050,1.40,0
10.5100,16.76,0
10.5150,16.76,0
10.5200,16.76,0
10.5250,16.76,0
10.5300,12.50,0
10.5350,12.80,0
10.5400,1.57,0
10.5450,1.57,0
10.5500,17.38,0
10.5550,-11.28,0
10.5600,17.38,0
10.5650,17.38,0
10.5700,17.38,0
10.5750,17.38,0
10.5800,17.35,0
10.5850,17.35,0
10.5900,-4.79,0
10.5950,-4.79,0
10.6000,-4.79,0
10.6050,-4.79,0
10.6100,7.93,0
10.6150,7.93,0
10.6200,16.68,0
10.6250,16.68,0
10.6300,16.68,0
10.6350,16.68,0
10.6400,8.58,0
10.6450,-5.53,0
10.6500,8.57,0
10.6550,-3.44,0
10.6600,-3.44,0
10.6650,-3.44,0
10.6700,-1.33,0
10.6750,-1.33,0
10.6800,-1.33,0
10.6850,-1.33,0
10.6900,0.94,0
10.6950,-3.19,0
10.7000,-3.19,0
10.7050,-3.19,0
10.7100,15.31,0
10.7150,15.31,0
10.7200,-2.65,0
10.7250,12.05,0
10.7300,8.59,0
10.7350,-3.01,0
10.7400,-3.01,0
10.7450,-3.01,0
10.7500,-3.01,0
10.7550,15.31,0
10.7600,18.68,0
10.7650,7.87,0
10.7700,7.87,0
10.7750,7.87,0
10.7800,7.87,0
10.7850,18.87,0
10.7900,18.87,0
10.7950,-1.87,0
10.8000,-1.87,0
10.8050,7.82,0
10.8100,8.59,0
10.8150,7.82,0
10.8200,7.82,0
10.8250,-5.60,0
10.8300,-5.60,0
10.8350,-5.60,0
10.8400,-5.60,0
10.8450,2.36,0
10.8500,8.02,0
10.8550,-5.20,0
10.8600,-5.20,0
10.8650,14.97,0
10.8700,14.97,0
10.8750,6.89,0
10.8800,6.89,0
10.8850,7.79,0
10.8900,7.79,0
10.8950,7.79,0
10.9000,7.79,0
10.9050,14.59,0
10.9100,14.59,0
10.9150,-4.24,0
10.9200,-4.24,0
10.9250,11.44,0
10.9300,11.44,0
10.9350,-3.92,0
10.9400,-3.92,0
10.9450,14.15,0
10.9500,14.15,0
10.9550,-1.72,0
10.9600,-1.72,0
10.9650,9.77,0
10.9700,9.77,0
10.9750,-4.17,0
10.9800,-4.17,0
10.9850,-4.17,0
10.9900,16.80,0
10.9950,16.80,0
11.0000,12.53,0
11.0050,12.53,0
11.0100,9.03,0
11.0150,9.03,0
11.0200,16.80,0
11.0250,9.03,0
11.0300,16.49,0
11.0350,16.49,0
11.0400,-5.10,0
11.0450,-5.10,0
11.0500,8.47,0
11.0550,8.47,0
11.0600,-5.90,0
11.0650,-5.90,0
11.0700,-5.90,0
11.0750,-5.90,0
11.0800,-0.38,0
11.0850,7.90,0
11.0900,7.90,0
11.0950,-2.90,0
11.1000,16.49,0
11.1050,14.00,0
11.1100,14.00,0
11.1150,16.39,0
11.1200,-3.20,0
11.1250,-5.61,0
11.1300,8.01,0
11.1350,8.11,0
11.1400,8.11,0
11.1450,11.36,0
11.1500,17.17,0
11.1550,-3.97,0
11.1600,1.72,0
11.1650,10.00,0
11.1700,10.00,0
11.1750,10.96,0
11.1800,10.96,0
11.1850,-5.06,0
11.1900,-5.06,0
11.1950,-5.06,0
11.2000,-5.06,0
11.2050,-0.44,0
11.2100,-0.44,0
11.2150,-7.09,0
11.2200,-7.09,0
11.2250,14.39,0
11.2300,14.39,0
11.2350,14.39,0
11.2400,14.39,0
11.2450,8.97,0
11.2500,8.97,0
11.2550,8.75,0
11.2600,8.75,0
11.2650,2.58,0
11.2700,13.60,0
11.2750,-4.98,0
11.2800,11.42,0
11.2850,9.09,0
11.2900,9.09,0
11.2950,9.10,0
11.3000,9.10,0
11.3050,9.10,0
11.3100,9.10,0
11.3150,-0.27,0
11.3200,-0.27,0
11.3250,8.95,0
11.3300,-1.41,0
11.3350,8.95,0
11.3400,8.95,0
11.3450,12.10,0
11.3500,12.10,0
11.3550,-0.97,0
11.3600,-0.97,0
11.3650,7.50,0
11.3700,7.50,0
11.3750,9.40,0
11.3800,9.40,0
11.3850,14.81,0
11.3900,-1.49,0
11.3950,-5.22,0
11.4000,13.04,0
11.4050,13.04,0
11.4100,-3.73,0
11.4150,14.81,0
11.4200,-3.73,0
11.4250,-3.73,0
11.4300,5.10,0
11.4350,5.10,0
11.4400,10.56,0
11.4450,-3.62,0
11.4500,-3.62,0
11.4550,-3.62,0
11.4600,-3.62,0
11.4650,-3.62,0
11.4700,-3.62,0
11.4750,2.75,0
11.4800,2.75,0
11.4850,13.06,0
11.4900,13.06,0
11.4950,13.06,0
11.5000,9.40,0
11.5050,3.14,0
11.5100,5.61,0
11.5150,3.14,0
11.5200,-0.50,0
11.5250,16.03,0
11.5300,16.03,0
11.5350,-0.50,0
11.5400,-4.71,0
11.5450,9.40,0
11.5500,6.16,0
11.5550,6.16,0
11.5600,-0.06,0
11.5650,-0.06,0
11.5700,14.11,0
11.5750,-5.20,0
11.5800,-5.20,0
11.5850,-1.70,0
11.5900,12.25,0
11.5950,12.63,0
11.6000,-0.59,0
11.6050,-0.59,0
11.6100,14.56,0
11.6150,14.56,0
11.6200,-2.85,0
11.6250,14.91,0
11.6300,14.91,0
11.6350,2.55,0
11.6400,2.55,0
11.6450,2.55,0
11.6500,2.55,0
11.6550,2.55,0
11.6600,17.55,0
11.6650,3.03,0
11.6700,3.03,0
11.6750,0.29,0
11.6800,0.29,0
11.6850,9.66,0
11.6900,0.29,0
11.6950,-7.42,0
11.7000,-1.69,0
11.7050,12.05,0
11.7100,12.05,0
11.7150,12.05,0
11.7200,3.01,0
11.7250,3.01,0
11.7300,-1.51,0
11.7350,-1.51,0
11.7400,17.71,0
11.7450,17.71,0
11.7500,13.57,0
11.7550,13.57,0
11.7600,3.21,0
11.7650,3.21,0
11.7700,13.57,0
11.7750,3.21,0
11.7800,-7.67,0
11.7850,-7.67,0
11.7900,13.25,0
11.7950,13.25,0
11.8000,13.25,0
11.8050,13.25,0
11.8100,-1.98,0
11.8150,-1.98,0
11.8200,-6.35,0
11.8250,-6.35,0
11.8300,2.94,0
11.8350,13.35,0
11.8400,5.34,0
11.8450,5.34,0
11.8500,0.54,0
11.8550,0.54,0
11.8600,16.32,0
11.8650,16.32,0
11.8700,-1.95,0
11.8750,11.12,0
11.8800,4.04,0
11.8850,4.04,0
11.8900,4.04,0
11.8950,4.04,0
11.9000,4.04,0
11.9050,4.04,0
11.9100,12.03,0
11.9150,6.98,0
11.9200,12.03,0
11.9250,1.42,0
11.9300,1.42,0
11.9350,1.42,0
11.9400,15.66,0
11.9450,-7.22,0
11.9500,10.88,0
11.9550,10.88,0
11.9600,10.88,0
11.9650,10.88,0
11.9700,0.40,0
11.9750,0.40,0
11.9800,15.72,0
11.9850,15.72,0
11.9900,18.51,0
11.9950,14.84,0
12.0000,3.56,0
12.0050,3.56,0
12.0100,3.56,0
12.0150,3.56,0
12.0200,16.48,0
12.0250,-7.43,0
12.0300,-7.43,0
12.0350,6.79,0
12.0400,6.79,0
12.0450,6.79,0
12.0500,-1.03,0
12.0550,-1.03,0
12.0600,14.91,0
12.0650,14.91,0
12.0700,-4.24,0
12.0750,-4.24,0
12.0800,10.83,0
12.0850,15.18,0
12.0900,-0.21,0
12.0950,-0.21,0
12.1000,16.22,0
12.1050,-1.97,0
12.1100,-1.97,0
12.1150,-1.97,0
12.1200,13.97,0
12.1250,16.22,0
12.1300,4.14,0
12.1350,4.14,0
12.1400,13.34,0
12.1450,17.60,0
12.1500,17.60,0
12.1550,14.15,0
12.1600,11.32,0
12.1650,-0.85,0
12.1700,-0.85,0
12.1750,-0.85,0
12.1800,-0.85,0
12.1850,15.52,0
12.1900,15.52,0
12.1950,12.85,0
12.2000,11.41,0
12.2050,-4.48,0
12.2100,0.22,0
12.2150,6.31,0
12.2200,6.31,0
12.2250,11.81,0
12.2300,11.81,0
12.2350,11.81,0
12.2400,11.81,0
12.2450,11.81,0
12.2500,-5.32,0
12.2550,-1.71,0
12.2600,-1.71,0
12.2650,-1.71,0
12.2700,11.09,0
12.2750,-5.46,0
12.2800,-3.88,0
12.2850,-5.46,0
12.2900,-5.46,0
12.2950,-5.46,0
12.3000,1.08,0
12.3050,1.08,0
12.3100,5.96,0
12.3150,5.96,0
12.3200,15.08,0
12.3250,14.43,0
12.3300,14.43,0
12.3350,14.43,0
12.3400,-0.90,0
12.3450,-0.90,0
12.3500,10.32,0
12.3550,10.32,0
12.3600,10.32,0
12.3650,10.32,0
12.3700,10.32,0
12.3750,10.32,0
12.3800,-5.46,0
12.3850,18.52,0
12.3900,10.27,0
12.3950,10.27,0
12.4000,-5.57,0
12.4050,-5.57,0
12.4100,-5.57,0
12.4150,0.51,0
12.4200,0.51,0
12.4250,11.13,0
12.4300,-1.42,0
12.4350,10.44,0
12.4400,10.44,0
12.4450,13.23,0
12.4500,13.23,0
12.4550,13.23,0
12.4600,13.23,0
12.4650,2.61,0
12.4700,2.61,0
12.4750,8.57,0
12.4800,8.57,0
12.4850,16.14,0
12.4900,16.14,0
12.4950,-4.82,0
12.5000,-4.82,0
12.5050,-4.82,0
12.5100,-4.82,0
12.5150,12.71,0
12.5200,12.71,0
12.5250,-6.21,0
12.5300,-6.21,0
12.5350,-6.21,0
12.5400,-6.21,0
12.5450,0.49,0
12.5500,0.49,0
12.5550,-5.82,0
12.5600,-5.82,0
12.5650,14.88,0
12.5700,14.88,0
12.5750,14.88,0
12.5800,13.23,0
12.5850,6.51,0
12.5900,6.51,0
12.5950,10.74,0
12.6000,10.04,0
12.6050,14.36,0
12.6100,14.36,0
12.6150,2.31,0
12.6200,-1.11,0
12.6250,-1.11,0
12.6300,-1.11,0
12.6350,-1.11,0
12.6400,-1.11,0
12.6450,-1.11,0
12.6500,-8.37,0
12.6550,-8.37,0
12.6600,-2.67,0
12.6650,-2.67,0
12.6700,8.15,0
12.6750,8.78,0
12.6800,11.37,0
12.6850,-4.74,0
12.6900,-4.74,0
12.6950,-4.74,0
12.7000,-2.30,0
12.7050,-4.74,0
12.7100,-1.30,0
12.7150,-1.30,0
12.7200,10.27,0
12.7250,-0.63,0
12.7300,15.08,0
12.7350,8.15,0
12.7400,0.96,0
12.7450,0.96,0
12.7500,0.96,0
12.7550,-1.30,0
12.7600,-4.74,0
12.7650,8.56,0
12.7700,-7.68,0
12.7750,-0.29,0
12.7800,12.42,0
12.7850,-0.29,0
12.7900,6.57,0
12.7950,6.57,0
12.8000,6.57,0
12.8050,6.57,0
12.8100,-2.01,0
12.8150,-2.01,0
12.8200,11.73,0
12.8250,8.30,0
12.8300,8.30,0
12.8350,9.82,0
12.8400,9.82,0
12.8450,3.79,0
12.8500,-4.08,0
12.8550,14.64,0
12.8600,14.64,0
12.8650,0.97,0
12.8700,15.65,0
12.8750,11.25,0
12.8800,11.25,0
12.8850,-4.27,0
12.8900,-4.27,0
12.8950,-4.27,0
12.9000,17.08,0
12.9050,17.08,0
12.9100,6.07,0
12.9150,6.07,0
12.9200,1.79,0
12.9250,6.07,0
12.9300,6.07,0
12.9350,6.07,0
12.9400,-4.38,0
12.9450,-4.38,0
12.9500,5.55,0
12.9550,5.55,0
12.9600,12.21,0
12.9650,12.21,0
12.9700,12.21,0
12.9750,12.06,0
12.9800,12.06,0
12.9850,-0.94,0
12.9900,-0.94,0
12.9950,-0.94,0
13.0000,11.68,0
13.0050,11.68,0
13.0100,14.71,0
13.0150,-4.51,0
13.0200,-4.51,0
13.0250,-4.51,0
13.0300,0.09,0
13.0350,0.09,0
13.0400,3.06,0
13.0450,0.09,0
13.0500,-2.72,0
13.0550,-2.72,0
13.0600,-5.85,0
13.0650,16.42,0
13.0700,16.42,0
13.0750,16.42,0
13.0800,16.42,0
13.0850,16.42,0
13.0900,-4.75,0
13.0950,-4.75,0
13.1000,6.37,0
13.1050,6.37,0
13.1100,15.65,0
13.1150,15.65,0
13.1200,-3.46,0
13.1250,-3.46,0
13.1300,12.29,0
13.1350,12.29,0
13.1400,-1.32,0
13.1450,14.15,0
13.1500,2.90,0
13.1550,-1.32,0
13.1600,-2.91,0
13.1650,-4.75,0
13.1700,11.08,0
13.1750,4.85,0
13.1800,4.85,0
13.1850,-1.98,0
13.1900,-1.98,0
13.1950,-6.63,0
13.2000,17.48,0
13.2050,3.28,0
13.2100,10.54,0
13.2150,10.54,0
13.2200,14.99,0
13.2250,4.51,0
13.2300,-1.98,0
13.2350,4.51,0
13.2400,-6.44,0
13.2450,-6.44,0
13.2500,-6.44,0
13.2550,5.25,0
13.2600,14.03,0
13.2650,5.25,0
13.2700,5.25,0
13.2750,-4.77,0
13.2800,-4.77,0
13.2850,-6.83,0
13.2900,11.43,0
13.2950,11.43,0
13.3000,11.43,0
13.3050,-0.20,0
13.3100,-0.20,0
13.3150,19.03,0
13.3200,11.86,0
13.3250,19.03,0
13.3300,10.58,0
13.3350,10.58,0
13.3400,7.82,0
13.3450,7.82,0
13.3500,7.82,0
13.3550,7.82,0
13.3600,16.57,0
13.3650,16.57,0
13.3700,-5.47,0
13.3750,6.50,0
13.3800,6.50,0
13.3850,6.50,0
13.3900,-0.84,0
13.3950,-0.84,0
13.4000,-0.84,0
13.4050,-0.84,0
13.4100,-2.27,0
13.4150,-2.27,0
13.4200,7.77,0
13.4250,7.77,1
13.4300,-1.67,0
13.4350,16.90,0
13.4400,16.90,0
13.4450,6.01,0
13.4500,-1.71,0
13.4550,9.81,0
13.4600,17.06,0
13.4650,4.79,0
13.4700,4.79,0
13.4750,3.41,0
13.4800,17.64,0
13.4850,0.09,0
13.4900,15.76,0
13.4950,10.80,0
13.5000,10.79,0
13.5050,8.51,0
13.5100,-3.11,0
13.5150,-3.11,0
13.5200,-3.11,0
13.5250,-5.18,0
13.5300,-5.18,0
13.5350,4.95,0
13.5400,4.95,0
13.5450,4.95,0
13.5500,-0.61,0
13.5550,8.51,0
13.5600,14.37,0
13.5650,14.37,0
13.5700,14.37,0
13.5750,7.99,0
13.5800,7.99,0
13.5850,7.99,0
13.5900,5.23,0
13.5950,10.34,0
13.6000,-1.97,0
13.6050,2.53,0
13.6100,-3.85,0
13.6150,-3.85,0
13.6200,-3.85,0
13.6250,5.13,0
13.6300,5.13,0
13.6350,4.95,0
13.6400,11.30,0
13.6450,-1.08,0
13.6500,-1.08,0
13.6550,8.06,0
13.6600,8.06,0
13.6650,5.31,0
13.6700,-5.17,0
13.6750,17.94,0
13.6800,17.94,0
13.6850,17.94,0
13.6900,17.94,0
13.6950,9.82,0
13.7000,9.82,0
13.7050,5.01,0
13.7100,5.01,0
13.7150,14.25,0
13.7200,14.25,0
13.7250,13.21,0
13.7300,-0.75,0
13.7350,-0.75,0
13.7400,-0.75,0
13.7450,6.86,0
13.7500,6.86,0
13.7550,6.86,0
13.7600,6.86,0
13.7650,-0.40,0
13.7700,-0.40,0
13.7750,11.25,0
13.7800,11.25,0
13.7850,5.18,0
13.7900,5.18,0
13.7950,14.47,0
13.8000,14.47,0
13.8050,14.47,0
13.8100,14.47,0
13.8150,10.48,0
13.8200,10.48,0
13.8250,4.53,0
13.8300,4.53,0
13.8350,13.90,0
13.8400,10.48,0
13.8450,6.02,0
13.8500,6.02,0
13.8550,-2.29,0
13.8600,-2.29,0
13.8650,-2.29,0
13.8700,-2.29,0
13.8750,1.79,0
13.8800,1.79,0
13.8850,4.56,0
13.8900,4.56,0
13.8950,-3.43,0
13.9000,-3.43,0
13.9050,12.56,0
13.9100,12.56,0
13.9150,12.56,0
13.9200,-1.02,0
13.9250,4.22,0
13.9300,4.22,0
13.9350,7.59,0
13.9400,7.59,0
13.9450,7.59,0
13.9500,4.53,0
13.9550,10.98,0
13.9600,10.98,0
13.9650,9.28,0
13.9700,9.28,0
13.9750,-1.16,0
13.9800,-1.16,0
13.9850,-1.16,0
13.9900,-1.16,0
13.9950,-1.16,0
14.0000,0.29,0
14.0050,2.59,0
14.0100,5.24,0
14.0150,5.24,0
14.0200,-3.42,0
14.0250,-3.42,0
14.0300,10.27,0
14.0350,10.27,0
14.0400,10.27,0
14.0450,-2.35,0
14.0500,5.13,0
14.0550,7.59,0
14.0600,8.25,0
14.0650,-1.84,0
14.0700,-1.84,0
14.0750,11.96,0
14.0800,-0.41,0
14.0850,11.96,0
14.0900,11.96,0
14.0950,11.60,0
14.1000,11.60,0
14.1050,-3.93,0
14.1100,-3.93,0
14.1150,1.86,0
14.1200,1.86,0
14.1250,3.23,0
14.1300,3.23,0
14.1350,10.38,0
14.1400,9.94,0
14.1450,9.94,0
14.1500,-1.60,0
14.1550,13.14,0
14.1600,12.15,0
14.1650,12.15,0
14.1700,6.11,0
14.1750,6.11,0
14.1800,10.50,0
14.1850,-1.43,0
14.1900,-1.43,0
14.1950,-1.05,0
14.2000,14.51,0
14.2050,0.43,0
14.2100,0.43,0
14.2150,9.11,0
14.2200,9.11,0
14.2250,-4.46,0
14.2300,5.15,0
14.2350,-4.46,0
14.2400,-4.46,0
14.2450,1.18,0
14.2500,1.18,0
14.2550,5.15,0
14.2600,11.70,0
14.2650,11.70,0
14.2700,11.70,0
14.2750,11.83,0
14.2800,11.83,0
14.2850,11.83,0
14.2900,11.83,0
14.2950,5.35,0
14.3000,5.35,0
14.3050,9.91,0
14.3100,9.91,0
14.3150,-2.58,0
14.3200,1.42,0
14.3250,1.42,0
14.3300,1.42,0
14.3350,1.42,0
14.3400,1.42,0
14.3450,8.70,0
14.3500,8.70,0
14.3550,-4.10,0
14.3600,-4.10,0
14.3650,0.44,0
14.3700,11.70,0
14.3750,0.58,0
14.3800,4.67,0
14.3850,-3.63,0
14.3900,11.30,0
14.3950,-2.52,0
14.4000,14.67,0
14.4050,15.03,0
14.4100,4.61,0
14.4150,4.61,0
14.4200,10.58,0
14.4250,10.58,0
14.4300,-1.45,0
14.4350,-1.45,0
14.4400,-1.45,0
14.4450,-3.40,0
14.4500,9.25,0
14.4550,0.11,0
14.4600,0.11,0
14.4650,9.63,0
14.4700,6.25,0
14.4750,-4.35,0
14.4800,-4.35,0
14.4850,3.81,0
14.4900,10.88,0
14.4950,3.81,0
14.5000,3.81,0
14.5050,3.81,0
14.5100,-3.71,0
14.5150,-3.71,0
14.5200,3.49,0
14.5250,12.49,0
14.5300,6.13,0
14.5350,6.13,0
14.5400,10.32,0
14.5450,10.32,0
14.5500,10.32,0
14.5550,10.32,0
14.5600,12.61,0
14.5650,12.61,0
14.5700,4.03,0
14.5750,4.03,0
14.5800,12.79,0
14.5850,12.79,0
14.5900,0.18,0
14.5950,0.18,0
14.6000,12.94,0
14.6050,12.94,0
14.6100,12.94,0
14.6150,3.44,0
14.6200,3.08,0
14.6250,3.08,0
14.6300,-1.38,0
14.6350,-1.38,0
14.6400,-1.38,0
14.6450,9.71,0
14.6500,9.71,0
14.6550,3.00,0
14.6600,3.00,0
14.6650,-5.54,0
14.6700,10.02,0
14.6750,10.02,0
14.6800,10.02,0
14.6850,1.31,0
14.6900,6.64,0
14.6950,6.64,0
14.7000,3.00,0
14.7050,15.37,0
14.7100,4.08,0
14.7150,4.08,0
14.7200,4.08,0
14.7250,4.08,0
14.7300,-1.00,0
14.7350,-1.00,0
14.7400,-2.97,0
14.7450,3.09,0
14.7500,10.56,0
14.7550,10.56,0
14.7600,2.04,0
14.7650,7.51,0
14.7700,-4.05,0
14.7750,13.53,0
14.7800,13.53,0
14.7850,13.53,0
14.7900,13.53,0
14.7950,7.35,0
14.8000,7.28,0
14.8050,7.28,0
14.8100,15.98,0
14.8150,15.98,0
14.8200,11.85,0
14.8250,-2.06,0
14.8300,-2.06,0
14.8350,-0.73,0
14.8400,-2.06,0
14.8450,7.60,0
14.8500,-1.32,0
14.8550,-1.32,0
14.8600,-0.78,0
14.8650,-0.78,0
14.8700,-0.78,0
14.8750,-0.78,0
14.8800,-3.94,0
14.8850,8.66,0
14.8900,8.92,0
14.8950,8.92,0
14.9000,13.41,0
14.9050,13.41,0
14.9100,7.11,0
14.9150,7.11,0
14.9200,8.23,0
14.9250,8.23,0
14.9300,8.23,0
14.9350,16.03,0
14.9400,16.03,0
14.9450,16.03,0
14.9500,16.03,0
14.9550,16.03,0
14.9600,16.03,0
14.9650,5.74,0
14.9700,2.20,0
14.9750,-2.88,0
14.9800,17.69,0
14.9850,17.69,0
14.9900,7.96,0
14.9950,7.96,0
15.0000,7.96,0
15.0050,7.96,0
15.0100,-0.84,0
15.0150,9.74,0
15.0200,13.25,0
15.0250,13.25,0
15.0300,8.03,0
15.0350,8.03,0
15.0400,8.96,0
15.0450,12.15,0
15.0500,-0.76,0
15.0550,8.96,0
15.0600,8.18,0
15.0650,13.14,0
15.0700,-1.60,0
15.0750,-1.60,0
15.0800,7.36,0
15.0850,7.36,0
15.0900,17.69,0
15.0950,5.60,0
15.1000,18.51,0
15.1050,18.51,0
15.1100,18.51,0
15.1150,10.02,0
15.1200,10.02,0
15.1250,10.02,0
15.1300,10.02,0
15.1350,7.16,0
15.1400,-1.90,0
15.1450,-1.90,0
15.1500,-1.90,0
15.1550,20.18,0
15.1600,20.18,0
15.1650,3.67,0
15.1700,3.67,0
15.1750,3.67,0
15.1800,18.26,0
15.1850,18.26,0
15.1900,-6.64,0
15.1950,-6.64,0
15.2000,13.12,0
15.2050,16.39,0
15.2100,-4.33,0
15.2150,-4.33,0
15.2200,-4.33,0
15.2250,-4.33,0
15.2300,-6.33,0
15.2350,2.80,0
15.2400,11.56,0
15.2450,11.56,0
15.2500,0.42,0
15.2550,0.42,0
15.2600,20.17,0
15.2650,17.12,0
15.2700,-6.83,0
15.2750,-6.83,0
15.2800,9.28,0
15.2850,9.28,0
15.2900,5.99,0
15.2950,5.99,0
15.3000,5.99,0
15.3050,5.99,0
15.3100,-8.89,0
15.3150,20.89,0
15.3200,17.03,0
15.3250,12.69,0
15.3300,12.69,0
15.3350,4.54,0
15.3400,4.54,0
15.3450,-3.16,0
15.3500,-3.16,0
15.3550,-9.01,0
15.3600,9.96,0
15.3650,11.72,0
15.3700,11.72,0
15.3750,-1.83,0
15.3800,-1.83,0
15.3850,17.75,0
15.3900,17.75,0
15.3950,-5.85,0
15.4000,10.57,0
15.4050,10.57,0
15.4100,5.90,0
15.4150,5.90,0
15.4200,5.90,0
15.4250,20.04,0
15.4300,0.09,0
15.4350,-5.42,0
15.4400,-1.83,0
15.4450,11.63,0
15.4500,5.90,0
15.4550,5.90,0
15.4600,-5.94,0
15.4650,-5.94,0
15.4700,18.38,0
15.4750,18.38,0
15.4800,14.79,0
15.4850,14.79,0
15.4900,15.07,0
15.4950,15.07,0
15.5000,15.07,0
15.5050,15.07,0
15.5100,-1.83,0
15.5150,1.52,0
15.5200,1.52,0
15.5250,1.52,0
15.5300,12.59,0
15.5350,18.23,0
15.5400,18.23,0
15.5450,0.02,0
15.5500,5.85,0
15.5550,0.97,0
15.5600,4.45,0
15.5650,12.28,0
15.5700,18.39,0
15.5750,-7.58,0
15.5800,-0.32,0
15.5850,-0.32,0
15.5900,-0.32,0
15.5950,-0.32,0
15.6000,-0.32,0
15.6050,-0.32,0
15.6100,-9.90,0
15.6150,-9.90,0
15.6200,15.20,0
15.6250,-9.90,0
15.6300,5.37,0
15.6350,5.37,0
15.6400,5.37,0
15.6450,13.43,0
15.6500,13.43,0
15.6550,16.93,0
15.6600,-9.63,0
15.6650,-2.20,0
15.6700,5.37,0
15.6750,-3.95,0
15.6800,-3.95,0
15.6850,14.85,0
15.6900,14.85,0
15.6950,3.79,0
15.7000,-8.57,0
15.7050,-4.67,0
15.7100,4.04,0
15.7150,4.04,0
15.7200,4.04,0
15.7250,4.04,0
15.7300,-8.02,0
15.7350,-8.02,0
15.7400,17.11,0
15.7450,17.11,0
15.7500,17.11,0
15.7550,4.15,0
15.7600,4.15,0
15.7650,14.33,0
15.7700,14.33,0
15.7750,-10.47,0
15.7800,-10.47,0
15.7850,17.30,0
15.7900,17.30,0
15.7950,-0.72,0
15.8000,-0.72,0
15.8050,12.87,0
15.8100,12.87,0
15.8150,-5.57,0
15.8200,-5.57,0
15.8250,16.89,0
15.8300,16.89,0
15.8350,16.89,0
15.8400,4.33,0
15.8450,4.33,0
15.8500,-8.81,0
15.8550,-8.81,0
15.8600,-8.81,0
15.8650,15.00,0
15.8700,15.00,0
15.8750,17.07,0
15.8800,4.70,0
15.8850,4.70,0
15.8900,4.70,0
15.8950,4.70,0
15.9000,4.70,0
15.9050,20.83,0
15.9100,20.83,0
15.9150,-3.29,0
15.9200,-3.29,0
15.9250,-3.29,0
15.9300,-3.29,0
15.9350,-3.29,0
15.9400,18.97,0
15.9450,18.97,0
15.9500,-0.16,0
15.9550,6.07,0
15.9600,6.00,0
15.9650,6.00,0
15.9700,12.28,0
15.9750,-6.88,0
15.9800,13.21,0
15.9850,13.21,0
15.9900,13.21,0
15.9950,12.45,0
16.0000,3.60,0
16.0050,3.60,0
16.0100,3.32,0
16.0150,13.51,0
16.0200,13.51,0
16.0250,19.21,0
16.0300,19.21,0
16.0350,0.07,0
16.0400,0.07,0
16.0450,18.15,0
16.0500,0.07,0
16.0550,0.07,0
16.0600,0.07,0
16.0650,17.68,0
16.0700,17.68,0
16.0750,13.07,0
16.0800,-0.08,0
16.0850,3.37,0
16.0900,3.37,0
16.0950,-9.26,0
16.1000,18.20,0
16.1050,17.41,0
16.1100,17.41,0
16.1150,17.41,0
16.1200,20.39,0
16.1250,4.33,0
16.1300,11.74,0
16.1350,11.74,0
16.1400,13.33,0
16.1450,15.58,0
16.1500,15.58,0
16.1550,-1.30,0
16.1600,-1.30,0
16.1650,5.11,0
16.1700,19.96,0
16.1750,11.18,0
