timestamp,ch1 (µV),event
5.3400,17.66,0
5.3450,-9.38,0
5.3500,-9.38,0
5.3550,-9.38,0
5.3600,-9.38,0
5.3650,9.03,0
5.3700,9.03,0
5.3750,-3.64,0
5.3800,-3.64,0
5.3850,-3.64,0
5.3900,-5.55,0
5.3950,-5.55,0
5.4000,-5.70,0
5.4050,16.91,0
5.4100,16.53,0
5.4150,16.53,0
5.4200,16.53,0
5.4250,16.53,0
5.4300,16.53,0
5.4350,16.53,0
5.4400,8.84,0
5.4450,8.84,0
5.4500,17.84,0
5.4550,17.84,0
5.4600,-3.64,0
5.4650,-6.17,0
5.4700,-6.17,0
5.4750,-6.17,0
5.4800,-6.17,0
5.4850,9.24,0
5.4900,9.24,0
5.4950,-5.15,0
5.5000,-8.39,0
5.5050,-6.41,0
5.5100,-6.41,0
5.5150,9.71,0
5.5200,3.16,0
5.5250,3.16,0
5.5300,9.24,0
5.5350,-6.40,0
5.5400,-6.40,0
5.5450,19.21,0
5.5500,19.21,0
5.5550,8.24,0
5.5600,8.24,0
5.5650,7.99,0
5.5700,7.99,0
5.5750,-6.40,0
5.5800,-3.98,0
5.5850,-5.15,0
5.5900,-5.15,0
5.5950,-5.15,0
5.6000,-5.15,0
5.6050,9.42,0
5.6100,9.42,0
5.6150,-4.86,0
5.6200,-4.86,0
5.6250,-4.24,0
5.6300,-4.24,0
5.6350,9.41,0
5.6400,9.41,0
5.6450,8.04,0
5.6500,8.04,0
5.6550,-5.42,0
5.6600,-5.42,0
5.6650,19.22,0
5.6700,19.22,0
5.6750,-3.98,0
5.6800,14.85,0
5.6850,14.73,0
5.6900,14.73,0
5.6950,-0.52,0
5.7000,-0.52,0
5.7050,0.16,0
5.7100,0.16,0
5.7150,16.81,0
5.7200,16.81,0
5.7250,15.46,0
5.7300,18.35,0
5.7350,1.22,0
5.7400,1.22,0
5.7450,-0.05,0
5.7500,-0.05,0
5.7550,-7.59,0
5.7600,-7.59,0
5.7650,14.75,0
5.7700,14.75,0
5.7750,14.75,0
5.7800,14.75,0
5.7850,14.75,0
5.7900,-0.12,0
5.7950,-0.12,0
5.8000,13.63,0
5.8050,-7.17,0
5.8100,18.09,0
5.8150,0.57,0
5.8200,0.57,0
5.8250,0.57,0
5.8300,0.57,0
5.8350,0.59,0
5.8400,0.59,0
5.8450,-7.00,0
5.8500,-7.00,0
5.8550,2.33,0
5.8600,2.33,0
5.8650,5.06,0
5.8700,5.06,0
5.8750,5.06,0
5.8800,5.06,0
5.8850,17.31,0
5.8900,17.31,0
5.8950,-6.48,0
5.9000,-6.48,0
5.9050,17.48,0
5.9100,17.48,0
5.9150,17.48,0
5.9200,14.39,0
5.9250,14.39,0
5.9300,14.39,0
5.9350,16.10,0
5.9400,16.10,0
5.9450,-1.80,0
5.9500,-1.80,0
5.9550,15.28,0
5.9600,15.28,0
5.9650,-9.55,0
5.9700,7.35,0
5.9750,-9.55,0
5.9800,6.78,0
5.9850,-12.01,0
5.9900,2.53,0
5.9950,2.53,0
6.0000,-8.06,0
6.0050,-8.06,0
6.0100,19.24,0
6.0150,19.24,0
6.0200,19.24,0
6.0250,19.24,0
6.0300,2.08,0
6.0350,2.08,0
6.0400,13.61,0
6.0450,13.61,0
6.0500,19.36,0
6.0550,19.36,0
6.0600,-1.79,0
6.0650,-1.91,0
6.0700,2.82,0
6.0750,2.82,0
6.0800,2.82,0
6.0850,18.32,0
6.0900,-9.55,0
6.0950,-9.55,0
6.1000,1.52,0
6.1050,1.52,0
6.1100,4.43,0
6.1150,4.43,0
6.1200,-8.40,0
6.1250,-8.40,0
6.1300,14.87,0
6.1350,14.87,0
6.1400,14.87,0
6.1450,14.87,0
6.1500,14.87,0
6.1550,5.57,0
6.1600,15.22,0
6.1650,15.22,0
6.1700,19.96,0
6.1750,19.96,0
6.1800,2.91,0
6.1850,2.91,0
6.1900,2.91,0
6.1950,2.91,0
6.2000,16.54,0
6.2050,-12.09,0
6.2100,-12.09,0
6.2150,-12.09,0
6.2200,-1.56,0
6.2250,-1.56,0
6.2300,4.36,0
6.2350,4.36,0
6.2400,4.36,0
6.2450,4.53,0
6.2500,-8.16,0
6.2550,19.28,0
6.2600,19.28,0
6.2650,3.57,0
6.2700,14.89,0
6.2750,12.44,0
6.2800,12.44,0
6.2850,12.44,0
6.2900,12.44,0
6.2950,18.31,0
6.3000,18.31,0
6.3050,-5.40,0
6.3100,-5.40,0
6.3150,15.44,0
6.3200,15.44,0
6.3250,2.19,0
6.3300,15.44,0
6.3350,15.44,0
6.3400,15.44,0
6.3450,-1.18,0
6.3500,6.15,0
6.3550,20.55,0
6.3600,4.01,0
6.3650,-9.84,0
6.3700,-9.84,0
6.3750,19.10,0
6.3800,19.10,0
6.3850,19.10,0
6.3900,19.10,0
6.3950,19.10,0
6.4000,19.10,0
6.4050,2.89,0
6.4100,2.89,0
6.4150,2.89,0
6.4200,20.82,0
6.4250,20.82,0
6.4300,0.24,0
6.4350,0.24,0
6.4400,7.81,0
6.4450,-9.96,0
6.4500,-9.96,0
6.4550,-9.96,0
6.4600,-9.96,0
6.4650,1.15,0
6.4700,1.15,0
6.4750,5.26,0
6.4800,5.26,0
6.4850,-8.15,0
6.4900,-8.15,0
6.4950,-6.80,0
6.5000,3.88,0
6.5050,21.40,0
6.5100,21.40,0
6.5150,21.40,0
6.5200,21.40,0
6.5250,17.50,0
6.5300,17.50,0
6.5350,4.53,0
6.5400,-11.13,0
6.5450,17.72,0
6.5500,17.72,0
6.5550,-10.90,0
6.5600,-10.90,0
6.5650,-10.90,0
6.5700,-10.90,0
6.5750,6.49,0
6.5800,-6.65,0
6.5850,-1.27,0
6.5900,20.41,0
6.5950,9.49,0
6.6000,18.20,0
6.6050,12.76,0
6.6100,12.76,0
6.6150,12.76,0
6.6200,5.87,0
6.6250,5.87,0
6.6300,17.29,0
6.6350,17.29,0
6.6400,4.03,0
6.6450,17.29,0
6.6500,11.03,0
6.6550,11.03,0
6.6600,11.03,0
6.6650,11.03,0
6.6700,-1.48,0
6.6750,-1.48,0
6.6800,-9.52,0
6.6850,-9.52,0
6.6900,-9.52,0
6.6950,-9.52,0
6.7000,-7.14,0
6.7050,15.81,0
6.7100,4.54,0
6.7150,9.41,0
6.7200,-8.29,0
6.7250,-8.29,0
6.7300,-8.29,0
6.7350,17.29,0
6.7400,-8.29,0
6.7450,-8.29,0
6.7500,2.71,0
6.7550,2.71,0
6.7600,-4.87,0
6.7650,15.96,0
6.7700,12.65,0
6.7750,12.65,0
6.7800,21.09,0
6.7850,12.65,0
6.7900,12.65,0
6.7950,12.65,0
6.8000,18.06,0
6.8050,18.06,0
6.8100,-10.21,0
6.8150,-10.21,0
6.8200,4.06,0
6.8250,4.06,0
6.8300,-6.16,0
6.8350,-6.16,0
6.8400,17.32,0
6.8450,17.32,0
6.8500,-5.77,0
6.8550,18.41,0
6.8600,14.90,0
6.8650,14.90,0
6.8700,4.49,0
6.8750,4.49,0
6.8800,14.07,0
6.8850,-8.52,0
6.8900,-8.52,0
6.8950,-8.52,0
6.9000,14.07,0
6.9050,10.35,0
6.9100,6.21,0
6.9150,20.60,0
6.9200,20.60,0
6.9250,20.60,0
6.9300,-7.99,0
6.9350,13.21,0
6.9400,-0.85,0
6.9450,5.71,0
6.9500,-1.69,0
6.9550,-1.69,0
6.9600,-1.69,0
6.9650,-1.69,0
6.9700,-10.15,0
6.9750,-10.15,0
6.9800,14.17,0
6.9850,17.61,0
6.9900,-1.12,0
6.9950,-1.12,0
7.0000,20.91,0
7.0050,20.91,0
7.0100,20.91,0
7.0150,12.82,0
7.0200,12.82,0
7.0250,1.69,0
7.0300,20.91,0
7.0350,20.08,0
7.0400,20.08,0
7.0450,-7.71,0
7.0500,-7.71,0
7.0550,-7.71,0
7.0600,-7.71,0
7.0650,-7.71,0
7.0700,3.31,0
7.0750,3.31,0
7.0800,-1.52,0
7.0850,-1.52,0
7.0900,-8.97,0
7.0950,19.32,0
7.1000,17.79,0
7.1050,17.79,0
7.1100,1.63,0
7.1150,1.63,0
7.1200,18.71,0
7.1250,18.71,0
7.1300,18.71,0
7.1350,12.81,0
7.1400,15.23,0
7.1450,0.48,0
7.1500,0.48,0
7.1550,17.26,0
7.1600,17.26,0
7.1650,17.26,0
7.1700,-7.57,0
7.1750,-7.57,0
7.1800,-7.57,0
7.1850,-7.57,0
7.1900,2.79,0
7.1950,-1.63,0
7.2000,-1.63,0
7.2050,-1.63,0
7.2100,-10.04,0
7.2150,-8.22,0
7.2200,15.20,0
7.2250,-1.23,0
7.2300,15.20,0
7.2350,15.20,0
7.2400,15.20,0
7.2450,15.88,0
7.2500,7.42,0
7.2550,19.04,0
7.2600,19.04,0
7.2650,1.87,0
7.2700,1.87,0
7.2750,1.87,0
7.2800,1.87,0
7.2850,1.87,0
7.2900,15.88,0
7.2950,-6.80,0
7.3000,-4.53,0
7.3050,15.60,0
7.3100,15.60,0
7.3150,21.41,0
7.3200,21.41,0
7.3250,21.41,0
7.3300,8.34,0
7.3350,11.85,0
7.3400,9.40,0
7.3450,9.40,0
7.3500,-7.25,0
7.3550,-7.25,0
7.3600,19.81,0
7.3650,5.83,0
7.3700,8.75,0
7.3750,8.75,0
7.3800,20.74,0
7.3850,8.75,0
7.3900,9.61,0
7.3950,9.61,0
7.4000,20.58,0
7.4050,20.58,0
7.4100,0.96,0
7.4150,-5.44,0
7.4200,9.73,0
7.4250,-11.68,0
7.4300,-11.68,0
7.4350,19.53,0
7.4400,19.53,0
7.4450,-3.20,0
7.4500,-3.20,0
7.4550,8.59,0
7.4600,0.97,0
7.4650,-4.20,0
7.4700,-4.20,0
7.4750,0.98,0
7.4800,14.64,0
7.4850,19.79,0
7.4900,11.67,0
7.4950,11.67,0
7.5000,6.90,0
7.5050,6.90,0
7.5100,6.90,0
7.5150,22.78,0
7.5200,22.78,0
7.5250,22.78,0
7.5300,-2.11,0
7.5350,-2.11,0
7.5400,5.78,0
7.5450,5.78,0
7.5500,-5.19,0
7.5550,-5.19,0
7.5600,17.73,0
7.5650,-5.19,0
7.5700,-5.19,0
7.5750,-5.19,0
7.5800,-4.20,0
7.5850,7.37,0
7.5900,-4.80,0
7.5950,-4.80,0
7.6000,18.44,0
7.6050,18.44,0
7.6100,21.59,0
7.6150,-7.71,0
7.6200,10.82,0
7.6250,10.82,0
7.6300,9.14,0
7.6350,9.14,0
7.6400,21.91,0
7.6450,-5.74,0
7.6500,-5.74,0
7.6550,-5.74,0
7.6600,-5.74,0
7.6650,10.30,0
7.6700,10.30,0
7.6750,-7.96,0
7.6800,-7.96,0
7.6850,-7.96,0
7.6900,-7.96,0
7.6950,15.66,0
7.7000,-7.96,0
7.7050,8.85,0
7.7100,8.85,0
7.7150,-3.90,0
7.7200,-3.90,0
7.7250,20.49,0
7.7300,20.49,0
7.7350,9.34,0
7.7400,10.11,0
7.7450,10.11,0
7.7500,10.11,0
7.7550,10.11,0
7.7600,-8.41,0
7.7650,19.13,0
7.7700,19.13,0
7.7750,-8.85,0
7.7800,-8.36,0
7.7850,-8.85,0
7.7900,-8.85,0
7.7950,-8.85,0
7.8000,-8.85,0
7.8050,17.52,0
7.8100,17.52,0
7.8150,-5.26,0
7.8200,-5.26,0
7.8250,8.87,0
7.8300,8.87,0
7.8350,8.87,0
7.8400,8.87,0
7.8450,8.87,0
7.8500,8.87,0
7.8550,-6.05,0
7.8600,8.68,0
7.8650,-5.26,0
7.8700,9.01,0
7.8750,9.01,0
7.8800,9.01,0
7.8850,-4.38,0
7.8900,-4.38,0
7.8950,-6.91,0
7.9000,-6.91,0
7.9050,-7.56,0
7.9100,-0.45,0
7.9150,8.87,0
7.9200,10.52,0
7.9250,-6.82,0
7.9300,9.36,0
7.9350,-4.84,0
7.9400,-4.84,0
7.9450,9.37,0
7.9500,9.37,0
7.9550,9.37,0
7.9600,9.37,0
7.9650,9.15,0
7.9700,9.37,0
7.9750,9.07,0
7.9800,18.62,0
7.9850,16.68,0
7.9900,9.44,0
7.9950,11.74,0
8.0000,11.74,0
8.0050,11.74,0
8.0100,17.67,0
8.0150,17.67,0
8.0200,17.67,0
8.0250,17.67,0
8.0300,10.10,0
8.0350,-10.55,0
8.0400,-3.80,0
8.0450,-5.92,0
8.0500,-3.80,0
8.0550,-3.80,0
8.0600,-3.80,0
8.0650,-3.80,0
8.0700,-3.80,0
8.0750,8.56,0
8.0800,8.56,0
8.0850,-3.72,0
8.0900,-3.72,0
8.0950,20.97,0
8.1000,20.97,0
8.1050,20.97,0
8.1100,20.97,0
8.1150,20.97,0
8.1200,-5.02,0
8.1250,-5.02,0
8.1300,-5.02,0
8.1350,20.10,0
8.1400,20.10,0
8.1450,20.10,0
8.1500,3.64,0
8.1550,3.64,0
8.1600,-0.20,0
8.1650,-0.20,0
8.1700,-0.20,0
8.1750,16.36,0
8.1800,2.96,0
8.1850,2.96,0
8.1900,-8.64,0
8.1950,-8.64,0
8.2000,-8.64,0
8.2050,17.96,0
8.2100,17.96,0
8.2150,-1.87,0
8.2200,4.00,0
8.2250,4.00,0
8.2300,4.00,0
8.2350,4.00,0
8.2400,4.00,0
8.2450,16.42,0
8.2500,16.42,0
8.2550,-2.01,0
8.2600,10.01,0
8.2650,15.13,0
8.2700,-13.20,0
8.2750,-7.40,0
8.2800,11.47,0
8.2850,-7.40,0
8.2900,-7.40,0
8.2950,-3.55,0
8.3000,-7.40,0
8.3050,5.16,0
8.3100,-5.64,0
8.3150,-9.41,0
8.3200,17.42,0
8.3250,17.42,0
8.3300,17.42,0
8.3350,17.42,0
8.3400,1.95,0
8.3450,1.95,0
8.3500,14.43,0
8.3550,14.43,0
8.3600,13.65,0
8.3650,13.65,0
8.3700,13.65,0
8.3750,13.65,0
8.3800,-3.18,0
8.3850,-3.18,0
8.3900,16.16,0
8.3950,16.16,0
8.4000,-7.33,0
8.4050,-7.33,0
8.4100,-7.33,0
8.4150,-7.33,0
8.4200,-0.54,0
8.4250,-0.54,0
8.4300,-14.13,0
8.4350,-14.13,0
8.4400,19.92,0
8.4450,19.92,0
8.4500,19.92,0
8.4550,19.92,0
8.4600,3.46,0
8.4650,3.46,0
8.4700,3.46,0
8.4750,3.46,0
8.4800,-8.98,0
8.4850,-8.98,0
8.4900,-1.61,0
8.4950,-1.61,0
8.5000,1.65,0
8.5050,1.65,0
8.5100,12.75,0
8.5150,12.75,0
8.5200,-3.39,0
8.5250,-3.39,0
8.5300,-0.55,0
8.5350,18.72,0
8.5400,-0.55,0
8.5450,-0.55,0
8.5500,-0.55,0
8.5550,-0.55,0
8.5600,5.84,0
8.5650,-0.55,0
8.5700,-0.55,0
8.5750,17.47,0
8.5800,17.47,0
8.5850,5.76,0
8.5900,5.76,0
8.5950,5.76,0
8.6000,5.76,0
8.6050,14.13,0
8.6100,14.13,0
8.6150,-5.91,0
8.6200,-5.91,0
8.6250,-5.91,0
8.6300,-5.91,0
8.6350,15.69,0
8.6400,-8.43,0
8.6450,-8.43,0
8.6500,14.13,0
8.6550,-2.32,0
8.6600,-2.32,0
8.6650,1.58,0
8.6700,1.58,0
8.6750,16.23,0
8.6800,16.23,0
8.6850,-8.53,0
8.6900,-5.38,0
8.6950,16.75,0
8.7000,3.90,0
8.7050,4.78,0
8.7100,11.38,0
8.7150,-6.19,0
8.7200,-8.68,0
8.7250,17.97,0
8.7300,21.03,0
8.7350,21.03,0
8.7400,21.03,0
8.7450,21.03,0
8.7500,21.03,0
8.7550,14.78,0
8.7600,14.78,0
8.7650,-4.80,0
8.7700,-8.15,0
8.7750,18.24,0
8.7800,18.24,0
8.7850,-5.94,0
8.7900,-5.94,0
8.7950,-5.94,0
8.8000,-5.94,0
8.8050,-7.90,0
8.8100,-7.90,0
8.8150,18.95,0
8.8200,18.95,0
8.8250,18.95,0
8.8300,8.13,0
8.8350,-0.88,0
8.8400,-0.88,0
8.8450,-11.50,0
8.8500,-11.50,0
8.8550,18.05,0
8.8600,18.05,0
8.8650,-6.66,0
8.8700,-6.66,0
8.8750,14.26,0
8.8800,14.26,0
8.8850,-12.13,0
8.8900,-12.13,0
8.8950,21.19,0
8.9000,21.19,0
8.9050,-1.52,0
8.9100,-1.52,0
8.9150,4.25,0
8.9200,4.25,0
8.9250,-4.65,0
8.9300,-4.65,0
8.9350,18.78,0
8.9400,5.49,0
8.9450,-2.25,0
8.9500,-2.25,0
8.9550,6.08,0
8.9600,-4.65,0
8.9650,6.08,0
8.9700,11.69,0
8.9750,11.69,0
8.9800,19.30,0
8.9850,19.30,0
8.9900,-7.12,0
8.9950,-7.12,0
9.0000,17.73,0
9.0050,-7.12,0
9.0100,-7.12,0
9.0150,-7.12,0
9.0200,-5.49,0
9.0250,-5.49,0
9.0300,-9.94,0
9.0350,-9.94,0
9.0400,15.49,0
9.0450,15.49,0
9.0500,15.49,0
9.0550,1.86,0
9.0600,1.86,0
9.0650,-0.87,0
9.0700,-0.87,0
9.0750,20.62,0
9.0800,12.19,0
9.0850,16.08,0
9.0900,15.38,0
9.0950,3.32,0
9.1000,3.32,0
9.1050,-3.55,0
9.1100,-3.55,0
9.1150,-8.28,0
9.1200,-8.28,0
9.1250,-8.28,0
9.1300,-8.28,0
9.1350,-8.28,0
9.1400,-8.28,0
9.1450,5.94,0
9.1500,5.94,0
9.1550,-8.28,0
9.1600,-7.43,0
9.1650,13.05,0
9.1700,13.05,0
9.1750,13.05,0
9.1800,20.62,0
9.1850,-2.43,0
9.1900,-2.43,0
9.1950,-2.43,0
9.2000,-2.43,0
9.2050,17.66,0
9.2100,-7.84,0
9.2150,8.47,0
9.2200,5.08,0
9.2250,5.08,0
9.2300,16.91,0
9.2350,16.91,0
9.2400,16.91,0
9.2450,-5.44,0
9.2500,-5.44,0
9.2550,5.59,0
9.2600,5.59,0
9.2650,-4.72,0
9.2700,-4.72,0
9.2750,-4.72,0
9.2800,-3.71,0
9.2850,-4.72,0
9.2900,-4.72,0
9.2950,13.35,0
9.3000,13.35,0
9.3050,-2.92,0
9.3100,-2.92,0
9.3150,-2.92,0
9.3200,-2.92,0
9.3250,-2.92,0
9.3300,-2.92,0
9.3350,12.46,0
9.3400,12.46,0
9.3450,2.82,0
9.3500,2.82,0
9.3550,19.66,0
9.3600,19.66,0
9.3650,-9.67,0
9.3700,-9.67,0
9.3750,-9.67,0
9.3800,4.74,0
9.3850,4.74,0
9.3900,-1.19,0
9.3950,12.01,0
9.4000,-6.93,0
9.4050,-6.93,0
9.4100,15.81,0
9.4150,15.81,0
9.4200,3.70,0
9.4250,3.70,0
9.4300,0.81,0
9.4350,0.81,0
9.4400,7.64,0
9.4450,16.47,0
9.4500,12.77,0
9.4550,-10.21,0
9.4600,20.78,0
9.4650,-10.21,0
9.4700,10.56,0
9.4750,10.56,0
9.4800,10.56,0
9.4850,-6.91,0
9.4900,-6.91,0
9.4950,-6.91,0
9.5000,-6.91,0
9.5050,-9.79,0
9.5100,-0.70,0
9.5150,-0.70,0
9.5200,-0.70,0
9.5250,-6.73,0
9.5300,13.17,0
9.5350,13.17,0
9.5400,13.17,0
9.5450,13.17,0
9.5500,13.17,0
9.5550,13.17,0
9.5600,-1.06,0
9.5650,-1.06,0
9.5700,17.38,0
9.5750,17.38,0
9.5800,6.94,0
9.5850,6.94,0
9.5900,6.94,0
9.5950,6.94,0
9.6000,16.30,0
9.6050,17.73,0
9.6100,-13.32,0
9.6150,-13.32,0
9.6200,5.08,0
9.6250,5.08,0
9.6300,-1.81,0
9.6350,-1.81,0
9.6400,15.92,0
9.6450,15.92,0
9.6500,-11.00,0
9.6550,-3.94,0
9.6600,14.63,0
9.6650,14.63,0
9.6700,-2.63,0
9.6750,-2.63,0
9.6800,14.87,0
9.6850,18.49,0
9.6900,-1.03,0
9.6950,14.87,0
9.7000,-9.41,0
9.7050,-9.41,0
9.7100,-0.50,0
9.7150,-0.50,0
9.7200,14.26,0
9.7250,18.49,0
9.7300,14.26,0
9.7350,14.26,0
9.7400,14.63,0
9.7450,13.73,0
9.7500,13.73,0
9.7550,-2.10,0
9.7600,-2.10,0
9.7650,17.49,0
9.7700,-11.26,0
9.7750,-11.26,0
9.7800,-6.24,0
9.7850,-6.24,0
9.7900,12.86,0
9.7950,22.05,0
9.8000,7.60,0
9.8050,7.60,0
9.8100,11.05,0
9.8150,11.05,0
9.8200,11.05,0
9.8250,-4.97,0
9.8300,22.12,0
9.8350,22.12,0
9.8400,-6.65,0
9.8450,-2.52,0
9.8500,9.59,0
9.8550,-5.81,0
9.8600,-2.90,0
9.8650,-6.30,0
9.8700,-6.30,0
9.8750,-6.30,0
9.8800,-6.30,0
9.8850,-8.35,0
9.8900,22.05,0
9.8950,2.93,0
9.9000,4.80,0
9.9050,4.80,0
9.9100,4.80,0
9.9150,4.80,0
9.9200,4.80,0
9.9250,4.80,0
9.9300,-6.57,0
9.9350,-6.57,0
9.9400,9.76,0
9.9450,9.76,0
9.9500,17.14,0
9.9550,17.14,0
9.9600,-2.50,0
9.9650,5.68,0
9.9700,4.56,0
9.9750,4.56,0
9.9800,13.27,0
9.9850,13.27,0
9.9900,-5.61,0
9.9950,-5.61,0
10.0000,-5.61,0
10.0050,9.27,0
10.0100,-5.61,0
10.0150,-6.84,0
10.0200,-6.84,0
10.0250,-9.40,0
10.0300,17.64,0
10.0350,17.64,0
10.0400,17.64,0
10.0450,17.64,0
10.0500,10.18,0
10.0550,9.30,0
10.0600,12.16,0
10.0650,12.16,0
10.0700,-7.39,0
10.0750,-7.39,0
10.0800,16.89,0
10.0850,16.89,0
10.0900,-4.42,0
10.0950,-4.42,0
10.1000,11.71,0
10.1050,11.71,0
10.1100,-5.43,0
10.1150,-5.43,0
10.1200,19.41,0
10.1250,19.41,0
10.1300,6.83,0
10.1350,18.26,0
10.1400,6.83,0
10.1450,6.83,0
10.1500,-0.26,0
10.1550,17.14,0
10.1600,24.37,0
10.1650,24.37,0
10.1700,10.24,0
10.1750,10.24,0
10.1800,-2.67,0
10.1850,10.24,0
10.1900,10.24,0
10.1950,10.24,0
10.2000,20.27,0
10.2050,20.27,0
10.2100,-4.48,0
10.2150,-4.48,0
10.2200,2.66,0
10.2250,8.60,0
10.2300,-9.30,0
10.2350,-9.30,0
10.2400,-8.13,0
10.2450,-8.13,0
10.2500,10.22,0
10.2550,10.22,0
10.2600,10.22,0
10.2650,10.22,0
10.2700,10.22,0
10.2750,10.22,0
10.2800,19.98,0
10.2850,19.98,0
10.2900,7.56,0
10.2950,7.56,0
10.3000,12.35,0
10.3050,12.35,0
10.3100,-10.24,0
10.3150,-10.24,0
10.3200,26.04,0
10.3250,22.49,0
10.3300,22.49,0
10.3350,2.87,0
10.3400,-4.37,0
10.3450,11.72,1
10.3500,11.72,0
10.3550,-3.30,0
10.3600,-3.30,0
10.3650,16.89,0
10.3700,-10.44,0
10.3750,-10.44,0
10.3800,-8.12,0
10.3850,6.19,0
10.3900,6.19,0
10.3950,-7.00,0
10.4000,-7.00,0
10.4050,19.18,0
10.4100,19.18,0
10.4150,-6.45,0
10.4200,13.58,0
10.4250,13.58,0
10.4300,13.58,0
10.4350,8.40,0
10.4400,8.40,0
10.4450,21.83,0
10.4500,21.83,0
10.4550,21.83,0
10.4600,21.83,0
10.4650,8.17,0
10.4700,8.17,0
10.4750,-6.93,0
10.4800,-6.93,0
10.4850,21.01,0
10.4900,21.01,0
10.4950,-7.25,0
10.5000,9.18,0
10.5050,2.18,0
10.5100,9.18,0
10.5150,-8.09,0
10.5200,20.67,0
10.5250,20.67,0
10.5300,20.67,0
10.5350,20.67,0
10.5400,20.67,0
10.5450,20.67,0
10.5500,10.34,0
10.5550,5.83,0
10.5600,17.68,0
10.5650,17.68,0
10.5700,-7.66,0
10.5750,-7.66,0
10.5800,9.32,0
10.5850,9.32,0
10.5900,8.78,0
10.5950,8.78,0
10.6000,-0.07,0
10.6050,-0.07,0
10.6100,1.67,0
10.6150,1.67,0
10.6200,-8.39,0
10.6250,-8.39,0
10.6300,-8.39,0
10.6350,-8.39,0
10.6400,-8.39,0
10.6450,-8.39,0
10.6500,-3.25,0
10.6550,-3.25,0
10.6600,12.99,0
10.6650,12.99,0
10.6700,14.36,0
10.6750,14.36,0
10.6800,-10.29,0
10.6850,2.10,0
10.6900,1.72,0
10.6950,1.72,0
10.7000,-6.21,0
10.7050,-6.21,0
10.7100,-6.21,0
10.7150,-6.21,0
10.7200,-6.21,0
10.7250,-6.21,0
10.7300,-6.21,0
10.7350,-6.21,0
10.7400,0.28,0
10.7450,0.28,0
10.7500,2.25,0
10.7550,19.25,0
10.7600,-1.25,0
10.7650,-1.25,0
10.7700,-1.25,0
10.7750,3.15,0
10.7800,3.15,0
10.7850,18.95,0
10.7900,18.95,0
10.7950,17.15,0
10.8000,17.15,0
10.8050,0.28,0
10.8100,-0.85,0
10.8150,2.19,0
10.8200,2.19,0
10.8250,-14.30,0
10.8300,-14.30,0
10.8350,-14.30,0
10.8400,-14.30,0
10.8450,2.06,0
10.8500,2.06,0
10.8550,3.48,0
10.8600,3.48,0
10.8650,14.96,0
10.8700,-6.03,0
10.8750,15.73,0
10.8800,15.73,0
10.8850,15.73,0
10.8900,0.17,0
10.8950,0.17,0
10.9000,0.17,0
10.9050,21.84,0
10.9100,0.17,0
10.9150,-9.63,0
10.9200,17.61,0
10.9250,17.61,0
10.9300,17.61,0
10.9350,1.30,0
10.9400,2.25,0
10.9450,2.25,0
10.9500,-8.50,0
10.9550,-8.50,0
10.9600,16.30,0
10.9650,16.30,0
10.9700,2.76,0
10.9750,2.76,0
10.9800,2.76,0
10.9850,20.28,0
10.9900,-9.83,0
10.9950,-9.83,0
11.0000,18.26,0
11.0050,18.26,0
11.0100,2.56,0
11.0150,2.56,0
11.0200,17.68,0
11.0250,0.50,0
11.0300,17.68,0
11.0350,17.68,0
11.0400,20.54,0
11.0450,20.54,0
11.0500,2.58,0
11.0550,2.58,0
11.0600,17.00,0
11.0650,17.00,0
11.0700,-7.70,0
11.0750,-7.70,0
11.0800,-7.70,0
11.0850,-7.70,0
11.0900,-7.70,0
11.0950,-7.70,0
11.1000,15.84,0
11.1050,15.84,0
11.1100,-13.70,0
11.1150,-13.70,0
11.1200,16.90,0
11.1250,16.90,0
11.1300,-9.24,0
11.1350,2.70,0
11.1400,18.96,0
11.1450,18.96,0
11.1500,18.96,0
11.1550,18.96,0
11.1600,18.95,0
11.1650,18.95,0
11.1700,18.95,0
11.1750,18.95,0
11.1800,18.95,0
11.1850,18.95,0
11.1900,18.95,0
11.1950,-0.86,0
11.2000,-0.86,0
11.2050,18.63,0
11.2100,2.91,0
11.2150,2.91,0
11.2200,18.62,0
11.2250,2.91,0
11.2300,-13.70,0
11.2350,2.91,0
11.2400,18.05,0
11.2450,16.09,0
11.2500,16.09,0
11.2550,16.09,0
11.2600,16.09,0
11.2650,16.09,0
11.2700,8.53,0
11.2750,1.14,0
11.2800,18.47,0
11.2850,18.47,0
11.2900,2.28,0
11.2950,-5.68,0
11.3000,18.63,0
11.3050,2.28,0
11.3100,8.65,0
11.3150,3.98,0
11.3200,3.98,0
11.3250,-1.40,0
11.3300,-1.40,0
11.3350,-1.40,0
11.3400,-1.40,0
11.3450,2.09,0
11.3500,2.09,0
11.3550,2.09,0
11.3600,-7.62,0
11.3650,-7.62,0
11.3700,-1.55,0
11.3750,-1.55,0
11.3800,11.00,0
11.3850,14.99,0
11.3900,-1.55,0
11.3950,14.99,0
11.4000,14.99,0
11.4050,21.02,0
11.4100,19.13,0
11.4150,18.52,0
11.4200,-4.74,0
11.4250,-4.74,0
11.4300,-4.74,0
11.4350,-4.74,0
11.4400,-4.74,0
11.4450,-4.74,0
11.4500,-4.74,0
11.4550,19.14,0
11.4600,19.14,0
11.4650,-12.38,0
11.4700,-12.38,0
11.4750,12.04,0
11.4800,7.81,0
11.4850,7.81,0
11.4900,-4.36,0
11.4950,-4.36,0
11.5000,-4.36,0
11.5050,19.06,0
11.5100,19.06,0
11.5150,21.02,0
11.5200,-11.97,0
11.5250,4.89,0
11.5300,0.86,0
11.5350,-2.84,0
11.5400,16.49,0
11.5450,-8.10,0
11.5500,-8.10,0
11.5550,-8.10,0
11.5600,-8.10,0
11.5650,8.53,0
11.5700,8.53,0
11.5750,-2.36,0
11.5800,-5.95,0
11.5850,-5.95,0
11.5900,11.37,0
11.5950,11.37,0
11.6000,11.37,0
11.6050,11.37,0
11.6100,11.37,0
11.6150,-1.41,0
11.6200,-1.41,0
11.6250,-1.41,0
11.6300,-1.41,0
11.6350,-9.38,0
11.6400,-9.38,0
11.6450,-13.44,0
11.6500,-9.38,0
11.6550,-3.18,0
11.6600,-3.18,0
11.6650,15.30,0
11.6700,15.30,0
11.6750,-6.95,0
11.6800,-13.44,0
11.6850,8.97,0
11.6900,8.97,0
11.6950,-5.11,0
11.7000,-5.11,0
11.7050,20.70,0
11.7100,6.45,0
11.7150,11.99,0
11.7200,11.99,0
11.7250,11.99,0
11.7300,11.99,0
11.7350,-5.36,0
11.7400,-6.73,0
11.7450,16.49,0
11.7500,16.49,0
11.7550,16.49,0
11.7600,16.49,0
11.7650,-5.39,0
11.7700,-5.39,0
11.7750,-6.32,0
11.7800,-6.32,0
11.7850,6.37,0
11.7900,-6.73,0
11.7950,-4.63,0
11.8000,6.25,0
11.8050,7.85,0
11.8100,7.85,0
11.8150,-5.37,0
11.8200,-5.37,0
11.8250,-5.37,0
11.8300,-5.37,0
11.8350,-7.84,0
11.8400,15.44,0
11.8450,14.34,0
11.8500,14.34,0
11.8550,-2.31,0
11.8600,19.06,0
11.8650,19.06,0
11.8700,-6.98,0
11.8750,-6.98,0
11.8800,7.54,0
11.8850,7.54,0
11.8900,16.60,0
11.8950,7.54,0
11.9000,7.54,0
11.9050,19.96,0
11.9100,19.96,0
11.9150,-6.95,0
11.9200,-6.95,0
11.9250,6.64,0
11.9300,6.64,0
11.9350,-0.70,0
11.9400,-0.70,0
11.9450,-0.70,0
11.9500,3.88,0
11.9550,-9.66,0
11.9600,-9.66,0
11.9650,14.77,0
11.9700,-2.31,0
11.9750,-3.66,0
11.9800,20.38,0
11.9850,20.38,0
11.9900,20.38,0
11.9950,20.38,0
12.0000,12.73,0
12.0050,12.73,0
12.0100,20.01,0
12.0150,9.25,0
12.0200,19.37,0
12.0250,19.37,0
12.0300,-8.91,0
12.0350,-8.91,0
12.0400,9.64,0
12.0450,9.64,0
12.0500,7.08,0
12.0550,0.69,0
12.0600,-3.86,0
12.0650,-3.86,0
12.0700,-11.93,0
12.0750,-11.93,0
12.0800,11.57,0
12.0850,11.57,0
12.0900,5.82,0
12.0950,5.82,0
12.1000,20.57,0
12.1050,20.57,0
12.1100,20.57,0
12.1150,20.57,0
12.1200,20.57,0
12.1250,20.57,0
12.1300,7.99,0
12.1350,7.99,0
12.1400,21.83,0
12.1450,21.83,0
12.1500,21.83,0
12.1550,21.83,0
12.1600,21.83,0
12.1650,11.39,0
12.1700,11.59,0
12.1750,11.59,0
12.1800,-2.67,0
12.1850,-2.67,0
12.1900,-6.69,0
12.1950,-6.69,0
12.2000,-6.69,0
12.2050,-6.69,0
12.2100,11.00,0
12.2150,11.00,0
12.2200,-1.32,0
12.2250,-1.32,0
12.2300,-1.32,0
12.2350,-1.32,0
12.2400,20.79,0
12.2450,14.81,0
12.2500,19.12,0
12.2550,1.07,0
12.2600,-2.33,0
12.2650,-2.33,0
12.2700,2.98,0
12.2750,2.98,0
12.2800,-0.14,0
12.2850,-8.31,0
12.2900,-8.31,0
12.2950,-8.31,0
12.3000,-9.24,0
12.3050,-1.32,0
12.3100,0.55,0
12.3150,-1.87,0
12.3200,1.14,0
12.3250,-11.22,0
12.3300,-11.22,0
12.3350,-11.22,0
12.3400,-11.22,0
12.3450,-11.22,0
12.3500,0.16,0
12.3550,0.16,0
12.3600,13.98,0
12.3650,13.98,0
12.3700,14.46,0
12.3750,14.46,0
12.3800,14.46,0
12.3850,-3.84,0
12.3900,-2.32,0
12.3950,1.88,0
12.4000,1.88,0
12.4050,16.44,0
12.4100,16.44,0
12.4150,-11.49,0
12.4200,-11.49,0
12.4250,-5.97,0
12.4300,-1.46,0
12.4350,2.81,0
12.4400,2.81,0
12.4450,-10.09,0
12.4500,-10.09,0
12.4550,16.01,0
12.4600,16.01,0
12.4650,16.01,0
12.4700,16.01,0
12.4750,-2.57,0
12.4800,-3.84,0
12.4850,15.94,0
12.4900,15.94,0
12.4950,17.31,0
12.5000,-0.91,0
12.5050,-0.91,0
12.5100,-0.91,0
12.5150,-0.91,0
12.5200,15.37,0
12.5250,15.37,0
12.5300,15.37,0
12.5350,-8.43,0
12.5400,2.22,0
12.5450,2.22,0
12.5500,6.67,0
12.5550,6.67,0
12.5600,6.67,0
12.5650,6.67,0
12.5700,-8.20,0
12.5750,18.45,0
12.5800,16.15,0
12.5850,17.70,0
12.5900,17.70,0
12.5950,4.85,0
12.6000,4.85,0
12.6050,-8.43,0
12.6100,4.85,0
12.6150,13.89,0
12.6200,13.89,0
12.6250,15.96,0
12.6300,-3.47,0
12.6350,-3.47,0
12.6400,-3.47,0
12.6450,14.24,0
12.6500,-7.68,0
12.6550,-7.68,0
12.6600,-7.68,0
12.6650,4.85,0
12.6700,-3.27,0
12.6750,3.35,0
12.6800,3.35,0
12.6850,3.35,0
12.6900,3.35,0
12.6950,-10.58,0
12.7000,-10.58,0
12.7050,17.25,0
12.7100,-1.86,0
12.7150,-1.86,0
12.7200,14.64,0
12.7250,14.64,0
12.7300,14.64,0
12.7350,14.64,0
12.7400,14.64,0
12.7450,19.45,0
12.7500,19.45,0
12.7550,-2.98,0
12.7600,-2.98,0
12.7650,10.94,0
12.7700,10.94,0
12.7750,-8.43,0
12.7800,-8.43,0
12.7850,19.27,0
12.7900,-1.44,0
12.7950,-1.44,0
12.8000,-1.44,0
12.8050,5.42,0
12.8100,5.42,0
12.8150,-5.61,0
12.8200,-5.61,0
12.8250,19.98,0
12.8300,19.98,0
12.8350,1.27,0
12.8400,13.29,0
12.8450,13.29,0
12.8500,13.29,0
12.8550,-0.16,0
12.8600,21.48,0
12.8650,21.48,0
12.8700,-0.47,0
12.8750,-0.47,0
12.8800,-0.47,0
12.8850,-0.47,0
12.8900,-0.47,0
12.8950,-0.47,0
12.9000,19.36,0
12.9050,19.36,0
12.9100,19.36,0
12.9150,19.36,0
12.9200,19.36,0
12.9250,19.36,0
12.9300,5.43,0
12.9350,5.43,0
12.9400,-0.47,0
12.9450,20.22,0
12.9500,1.85,0
12.9550,1.85,0
12.9600,1.85,0
12.9650,0.97,0
12.9700,0.97,0
12.9750,15.50,0
12.9800,15.50,0
12.9850,16.54,0
12.9900,16.54,0
12.9950,1.24,0
13.0000,-0.21,0
13.0050,-0.21,0
13.0100,-0.21,0
13.0150,-36.39,0
13.0200,-36.39,0
13.0250,-36.39,0
13.0300,-58.84,0
13.0350,-58.84,0
13.0400,-58.84,0
13.0450,18.94,0
13.0500,18.94,0
13.0550,18.94,0
13.0600,18.94,0
13.0650,18.94,0
13.0700,-66.84,0
13.0750,21.27,0
13.0800,-82.77,0
13.0850,-82.77,0
13.0900,-359.41,0
13.0950,19.46,0
13.1000,-163.78,0
13.1050,-163.78,0
13.1100,-222.74,0
13.1150,-222.74,0
13.1200,47.63,0
13.1250,47.63,0
13.1300,305.90,0
13.1350,305.90,0
13.1400,76.78,0
13.1450,76.78,0
13.1500,30.77,0
13.1550,30.77,0
13.1600,-3.96,0
13.1650,-3.96,0
13.1700,-21.63,0
13.1750,-21.63,0
13.1800,-21.63,0
13.1850,-21.63,0
13.1900,-3.83,0
13.1950,-3.83,0
13.2000,-3.83,0
13.2050,47.63,0
13.2100,28.85,0
13.2150,28.85,0
13.2200,64.92,0
13.2250,130.18,0
13.2300,156.85,0
13.2350,156.85,0
13.2400,156.85,0
13.2450,90.54,0
13.2500,23.95,0
13.2550,-17.73,0
13.2600,-17.73,0
13.2650,61.82,0
13.2700,90.99,0
13.2750,90.99,0
13.2800,90.99,0
13.2850,57.99,0
13.2900,52.19,0
13.2950,203.45,0
13.3000,-3.80,0
13.3050,203.45,0
13.3100,203.45,0
13.3150,203.45,0
13.3200,203.45,0
13.3250,392.40,0
13.3300,-151.95,0
13.3350,-151.95,0
13.3400,-93.12,0
13.3450,-93.12,0
13.3500,-93.12,0
13.3550,-93.12,0
13.3600,-96.27,0
13.3650,-96.27,0
13.3700,-102.58,0
13.3750,-102.58,0
13.3800,-102.58,0
13.3850,-101.08,0
13.3900,-101.08,0
13.3950,37.93,0
13.4000,37.93,0
13.4050,37.93,0
13.4100,37.93,0
13.4150,37.93,0
13.4200,-41.13,0
13.4250,-41.13,0
13.4300,-41.13,0
13.4350,-111.40,0
13.4400,-78.38,0
13.4450,-78.38,0
13.4500,-276.02,0
13.4550,-101.09,0
13.4600,-178.55,0
13.4650,-178.55,0
13.4700,-178.55,0
13.4750,80.22,0
13.4800,-85.53,0
13.4850,-243.98,0
13.4900,-85.53,0
13.4950,-3.11,0
13.5000,-3.11,0
13.5050,-3.11,0
13.5100,-3.11,0
13.5150,-3.11,0
13.5200,-422.98,0
13.5250,-422.98,0
13.5300,-422.98,0
13.5350,-82.30,0
13.5400,-82.30,0
13.5450,-404.67,0
13.5500,-404.67,0
13.5550,-211.41,0
13.5600,-878.89,0
13.5650,-878.89,0
13.5700,-101.49,0
13.5750,-1082.13,0
13.5800,-1082.13,0
13.5850,-342.30,0
13.5900,-342.30,0
13.5950,-36.06,0
13.6000,318.13,0
13.6050,-426.64,0
13.6100,-426.64,0
13.6150,-426.64,0
13.6200,-426.64,0
13.6250,-426.64,0
13.6300,-426.64,0
13.6350,125.70,0
13.6400,-520.04,0
13.6450,-520.04,0
13.6500,-94.49,0
13.6550,-50.22,0
13.6600,-588.49,0
13.6650,-588.49,0
13.6700,125.70,0
13.6750,-937.87,0
13.6800,-937.87,0
13.6850,-365.91,0
13.6900,-1284.88,0
13.6950,-373.07,0
13.7000,-213.49,0
13.7050,-1194.44,0
13.7100,-1194.44,0
13.7150,-1361.18,0
13.7200,-1361.18,0
13.7250,-1383.95,0
13.7300,-1549.13,0
13.7350,289.40,0
13.7400,-1549.13,0
13.7450,-1549.13,0
13.7500,489.09,0
13.7550,-1892.31,0
13.7600,-255.38,0
13.7650,-1776.34,0
13.7700,436.51,0
13.7750,-1810.15,0
13.7800,-1810.15,0
13.7850,-1535.38,0
13.7900,-1535.38,0
13.7950,-1535.38,0
13.8000,-1535.38,0
13.8050,-1587.99,0
13.8100,-1369.76,0
13.8150,-1369.76,0
13.8200,-1369.76,0
13.8250,-1369.76,0
13.8300,-1369.76,0
13.8350,-1369.76,0
13.8400,-1369.76,0
13.8450,-1369.76,0
13.8500,-604.54,0
13.8550,-1261.24,0
13.8600,-1189.79,0
13.8650,-1189.79,0
13.8700,-167.05,0
13.8750,-167.05,0
13.8800,-186.75,0
13.8850,-186.75,0
13.8900,-97.60,0
13.8950,-97.60,0
13.9000,-1299.24,0
13.9050,-97.60,0
13.9100,-121.14,0
13.9150,-121.14,0
13.9200,-118.13,0
13.9250,-83.99,0
13.9300,5.47,0
13.9350,5.47,0
13.9400,29.75,0
13.9450,29.75,0
13.9500,29.75,0
13.9550,29.75,0
13.9600,29.75,0
13.9650,29.75,0
13.9700,-37.49,0
13.9750,-37.49,0
13.9800,-206.12,0
13.9850,-206.12,0
13.9900,-305.29,0
13.9950,-305.29,0
14.0000,-1239.19,0
14.0050,-106.51,0
14.0100,-65.12,0
14.0150,-305.29,0
14.0200,-117.65,0
14.0250,-117.65,0
14.0300,-61.48,0
14.0350,-61.48,0
14.0400,-13.48,0
14.0450,-13.48,0
14.0500,27.66,0
14.0550,27.66,0
14.0600,27.66,0
14.0650,93.61,0
14.0700,93.61,0
14.0750,93.61,0
14.0800,93.61,0
14.0850,-95.84,0
14.0900,-201.34,0
14.0950,-201.34,0
14.1000,-201.34,0
14.1050,-201.34,0
14.1100,-180.82,0
14.1150,-180.82,0
14.1200,-348.44,0
14.1250,-348.44,0
14.1300,-348.44,0
14.1350,-225.73,0
14.1400,-277.46,0
14.1450,-277.46,0
14.1500,-120.93,0
14.1550,-120.93,0
14.1600,-42.67,0
14.1650,-42.67,0
14.1700,197.49,0
14.1750,-120.93,0
14.1800,370.54,0
14.1850,-95.83,0
14.1900,-41.37,0
14.1950,-41.37,0
14.2000,-486.13,0
14.2050,-486.13,0
14.2100,-136.88,0
14.2150,-136.88,0
14.2200,280.48,0
14.2250,280.48,0
14.2300,693.54,0
14.2350,693.54,0
14.2400,693.54,0
14.2450,693.54,0
14.2500,1351.00,0
14.2550,1351.00,0
14.2600,1060.24,0
14.2650,1060.24,0
14.2700,-199.89,0
14.2750,1060.24,0
14.2800,988.82,0
14.2850,988.82,0
14.2900,766.97,0
14.2950,766.97,0
14.3000,766.97,0
14.3050,766.97,0
14.3100,766.97,0
14.3150,766.97,0
14.3200,766.97,0
14.3250,575.67,0
14.3300,575.67,0
14.3350,586.73,0
14.3400,586.73,0
14.3450,920.76,0
14.3500,920.76,0
14.3550,920.76,0
14.3600,1021.38,0
14.3650,1021.38,0
14.3700,1164.26,0
14.3750,1164.26,0
14.3800,1320.33,0
14.3850,1320.33,0
14.3900,1320.33,0
14.3950,1320.33,0
14.4000,113.59,0
14.4050,113.59,0
14.4100,-460.56,0
14.4150,736.04,0
14.4200,33.96,0
14.4250,33.96,0
14.4300,389.58,0
14.4350,469.16,0
14.4400,469.16,0
14.4450,367.26,0
14.4500,367.26,0
14.4550,274.15,0
14.4600,274.15,0
14.4650,592.04,0
14.4700,592.04,0
14.4750,-51.85,0
14.4800,-51.85,0
14.4850,46.54,0
14.4900,46.54,0
14.4950,592.04,0
14.5000,333.70,0
14.5050,-96.23,0
14.5100,333.70,0
14.5150,333.70,0
14.5200,643.29,0
14.5250,643.29,0
14.5300,633.87,0
14.5350,633.87,0
14.5400,1050.75,0
14.5450,1050.75,0
14.5500,1050.83,0
14.5550,1050.83,0
14.5600,1050.83,0
14.5650,274.01,0
14.5700,733.08,0
14.5750,733.08,0
14.5800,629.56,0
14.5850,789.91,0
14.5900,789.91,0
14.5950,939.93,0
14.6000,939.93,0
14.6050,939.93,0
14.6100,829.56,0
14.6150,829.56,0
14.6200,427.43,0
14.6250,1174.33,0
14.6300,1347.49,0
14.6350,1347.49,0
14.6400,630.02,0
14.6450,559.50,0
14.6500,559.50,0
14.6550,603.43,0
14.6600,603.43,0
14.6650,353.73,0
14.6700,353.73,0
14.6750,1241.46,0
14.6800,1241.46,0
14.6850,1710.43,0
14.6900,1710.43,0
14.6950,629.84,0
14.7000,2662.49,0
14.7050,534.27,0
14.7100,2575.63,0
14.7150,629.32,0
14.7200,2198.35,0
14.7250,2198.35,0
14.7300,1892.06,0
14.7350,1892.06,0
14.7400,2006.79,0
14.7450,2006.79,0
14.7500,1378.02,0
14.7550,1820.60,0
14.7600,1820.60,0
14.7650,1820.60,0
14.7700,1969.17,0
14.7750,629.34,0
14.7800,1561.10,0
14.7850,767.90,0
14.7900,1561.10,0
14.7950,1561.10,0
14.8000,2241.93,0
14.8050,2241.93,0
14.8100,2201.07,0
14.8150,2201.07,0
14.8200,1687.38,0
14.8250,1142.09,0
14.8300,1142.09,0
14.8350,530.20,0
14.8400,1142.09,0
14.8450,1142.09,0
14.8500,1753.26,0
14.8550,1753.26,0
14.8600,1753.26,0
14.8650,1024.91,0
14.8700,1024.91,0
14.8750,1024.91,0
14.8800,993.87,0
14.8850,993.87,0
14.8900,993.87,0
14.8950,1053.09,0
14.9000,1053.09,0
14.9050,1053.09,0
14.9100,1053.09,0
14.9150,1053.09,0
14.9200,1053.09,0
14.9250,1048.42,0
14.9300,1048.42,0
14.9350,1683.85,0
14.9400,1683.85,0
14.9450,1754.98,0
14.9500,1508.37,0
14.9550,1754.98,0
14.9600,1754.98,0
14.9650,1692.30,0
14.9700,1692.30,0
14.9750,1736.24,0
14.9800,1680.29,0
14.9850,1469.05,0
14.9900,1809.97,0
14.9950,1469.05,0
15.0000,1469.05,0
15.0050,1152.33,0
15.0100,1469.05,0
15.0150,830.81,0
15.0200,830.81,0
15.0250,826.27,0
15.0300,826.27,0
15.0350,913.18,0
15.0400,913.18,0
15.0450,913.18,0
15.0500,913.18,0
15.0550,913.18,0
15.0600,877.16,0
15.0650,877.16,0
15.0700,1181.30,0
15.0750,1692.18,0
15.0800,826.27,0
15.0850,895.90,0
15.0900,895.90,0
15.0950,895.90,0
15.1000,895.90,0
15.1050,1691.85,0
15.1100,890.01,0
15.1150,890.01,0
15.1200,681.50,0
15.1250,913.17,0
15.1300,681.50,0
15.1350,681.50,0
15.1400,850.04,0
15.1450,850.04,0
15.1500,826.59,0
15.1550,826.59,0
15.1600,858.73,0
15.1650,858.73,0
15.1700,770.06,0
15.1750,770.06,0
15.1800,770.06,0
15.1850,429.64,0
15.1900,429.64,0
15.1950,429.64,0
15.2000,429.64,0
15.2050,1164.22,0
15.2100,1164.22,0
15.2150,1535.03,0
15.2200,1535.03,0
15.2250,1535.03,0
15.2300,1535.03,0
15.2350,1535.03,0
15.2400,615.79,0
15.2450,1389.28,0
15.2500,1389.28,0
15.2550,1817.39,0
15.2600,1817.39,0
15.2650,2169.37,0
15.2700,2169.37,0
15.2750,2383.23,0
15.2800,2383.23,0
15.2850,2094.86,0
15.2900,2094.86,0
15.2950,2094.86,0
15.3000,2094.86,0
15.3050,2094.86,0
15.3100,2094.86,0
15.3150,1502.71,0
15.3200,1502.71,0
15.3250,2161.06,0
15.3300,1586.62,0
15.3350,1878.56,0
15.3400,1205.38,0
15.3450,1205.38,1
15.3500,1205.38,0
15.3550,1205.38,0
15.3600,1205.38,0
15.3650,1205.38,0
15.3700,1532.96,0
15.3750,1502.72,0
15.3800,1323.44,0
15.3850,1197.04,0
15.3900,1968.62,0
15.3950,1968.62,0
15.4000,1942.45,0
15.4050,1942.45,0
15.4100,1865.47,0
15.4150,1865.47,0
15.4200,1673.12,0
15.4250,1923.27,0
15.4300,2029.76,0
15.4350,2063.40,0
15.4400,2063.40,0
15.4450,2129.16,0
15.4500,2129.16,0
15.4550,2129.16,0
15.4600,1968.63,0
15.4650,2052.21,0
15.4700,1923.27,0
15.4750,2052.21,0
15.4800,2191.63,0
15.4850,1313.78,0
15.4900,250.15,0
15.4950,84.87,0
15.5000,84.87,0
15.5050,129.84,0
15.5100,129.84,0
15.5150,129.84,0
15.5200,102.08,0
15.5250,102.08,0
15.5300,162.09,0
15.5350,102.08,0
15.5400,98.33,0
15.5450,98.33,0
15.5500,98.33,0
15.5550,116.38,0
15.5600,116.38,0
15.5650,109.71,0
15.5700,109.71,0
15.5750,109.71,0
15.5800,1939.71,0
15.5850,239.47,0
15.5900,239.47,0
15.5950,165.71,0
15.6000,165.71,0
15.6050,69.97,0
15.6100,69.97,0
15.6150,-56.53,0
15.6200,-56.53,0
15.6250,-185.08,0
15.6300,-185.08,0
15.6350,-138.50,0
15.6400,-138.50,0
15.6450,28.54,0
15.6500,28.54,0
15.6550,-59.89,0
15.6600,-59.89,0
15.6650,-59.89,0
15.6700,-142.41,0
15.6750,-142.41,0
15.6800,-41.23,0
15.6850,-41.23,0
15.6900,38.96,0
15.6950,38.96,0
15.7000,38.96,0
15.7050,38.96,0
15.7100,126.03,0
15.7150,126.03,0
15.7200,166.01,0
15.7250,263.28,0
15.7300,263.28,0
15.7350,263.28,0
15.7400,115.34,0
15.7450,104.24,0
15.7500,115.34,0
15.7550,115.34,0
15.7600,115.34,0
15.7650,115.34,0
15.7700,902.20,0
15.7750,902.20,0
15.7800,15.23,0
15.7850,926.46,0
15.7900,263.28,0
15.7950,993.92,0
15.8000,872.00,0
15.8050,1041.21,0
15.8100,1041.21,0
15.8150,917.55,0
15.8200,917.55,0
15.8250,917.55,0
15.8300,839.76,0
15.8350,934.31,0
15.8400,934.31,0
15.8450,903.41,0
15.8500,903.41,0
15.8550,887.28,0
15.8600,887.28,0
15.8650,887.28,0
15.8700,887.28,0
15.8750,935.78,0
15.8800,935.78,0
15.8850,876.55,0
15.8900,876.55,0
15.8950,938.22,0
15.9000,938.22,0
15.9050,956.94,0
15.9100,190.58,0
15.9150,956.94,0
15.9200,956.94,0
15.9250,839.76,0
15.9300,953.64,0
15.9350,872.36,0
15.9400,935.37,0
15.9450,1079.08,0
15.9500,1079.08,0
15.9550,1005.06,0
15.9600,1005.06,0
15.9650,961.57,0
15.9700,961.57,0
15.9750,976.68,0
15.9800,990.38,0
15.9850,1090.58,0
15.9900,1090.58,0
15.9950,953.56,0
16.0000,953.56,0
16.0050,972.26,0
16.0100,972.26,0
16.0150,972.26,0
16.0200,972.26,0
16.0250,838.64,0
16.0300,1065.29,0
16.0350,1065.74,0
16.0400,1065.74,0
16.0450,732.73,0
16.0500,787.98,0
16.0550,787.98,0
16.0600,787.98,0
16.0650,787.98,0
16.0700,787.98,0
16.0750,787.98,0
16.0800,787.98,0
16.0850,1130.20,0
16.0900,1130.20,0
16.0950,1297.31,0
16.1000,1297.31,0
16.1050,1336.35,0
16.1100,1336.35,0
16.1150,1336.35,0
16.1200,1336.35,0
16.1250,1165.68,0
16.1300,1165.68,0
16.1350,1165.68,0
16.1400,1165.68,0
16.1450,1101.09,0
16.1500,1101.09,0
16.1550,997.11,0
16.1600,997.11,0
16.1650,997.11,0
16.1700,997.11,0
16.1750,997.11,0
16.1800,997.11,0
16.1850,1186.27,0
16.1900,1122.98,0
16.1950,1043.71,0
16.2000,1043.71,0
16.2050,1019.14,0
16.2100,1019.14,0
16.2150,914.22,0
16.2200,938.69,0
16.2250,938.69,0
16.2300,938.69,0
16.2350,938.69,0
16.2400,951.40,0
16.2450,951.40,0
16.2500,951.40,0
16.2550,951.40,0
16.2600,875.38,0
16.2650,875.38,0
16.2700,985.70,0
16.2750,985.70,0
16.2800,1198.49,0
16.2850,985.70,0
16.2900,981.72,0
16.2950,981.72,0
16.3000,1201.95,0
16.3050,26.74,0
16.3100,-56.52,0
16.3150,-56.52,0
16.3200,-22.25,0
16.3250,-22.25,0
16.3300,-50.03,0
16.3350,-50.03,0
16.3400,-50.03,0
16.3450,-50.03,0
16.3500,-50.03,0
16.3550,965.51,0
16.3600,-50.03,0
16.3650,90.02,0
16.3700,-28.57,0
16.3750,35.66,0
16.3800,900.38,0
16.3850,143.32,0
16.3900,143.32,0
16.3950,82.10,0
16.4000,82.10,0
16.4050,51.87,0
16.4100,51.87,0
16.4150,83.44,0
16.4200,83.44,0
16.4250,12.84,0
16.4300,12.84,0
16.4350,-3.60,0
16.4400,954.66,0
16.4450,-3.60,0
16.4500,-3.60,0
16.4550,-3.60,0
16.4600,-3.60,0
16.4650,74.77,0
16.4700,74.77,0
16.4750,19.66,0
16.4800,19.66,0
16.4850,86.24,0
16.4900,86.24,0
16.4950,-95.29,0
16.5000,-95.29,0
16.5050,-197.44,0
16.5100,-197.44,0
16.5150,-197.44,0
16.5200,-219.69,0
16.5250,-219.69,0
16.5300,25.49,0
16.5350,25.49,0
16.5400,-26.26,0
16.5450,-26.26,0
16.5500,-53.42,0
16.5550,-53.42,0
16.5600,-53.42,0
16.5650,-563.69,0
16.5700,-563.69,0
16.5750,-289.13,0
16.5800,-289.13,0
16.5850,40.31,0
16.5900,22.16,0
16.5950,-477.56,0
16.6000,-477.56,0
16.6050,-771.79,0
16.6100,-771.79,0
16.6150,-876.67,0
16.6200,-876.67,0
16.6250,79.29,0
16.6300,-630.94,0
16.6350,-941.64,0
16.6400,-511.56,0
16.6450,-511.56,0
16.6500,-511.56,0
16.6550,-511.56,0
16.6600,-296.98,0
16.6650,-296.98,0
16.6700,-296.98,0
16.6750,-97.21,0
16.6800,-38.79,0
16.6850,-97.21,0
16.6900,-172.30,0
16.6950,-172.30,0
16.7000,-172.30,0
16.7050,-172.30,0
16.7100,-95.35,0
16.7150,-95.35,0
16.7200,115.45,0
16.7250,115.45,0
16.7300,115.45,0
16.7350,115.45,0
16.7400,325.23,0
16.7450,325.23,0
16.7500,138.47,0
16.7550,138.47,0
16.7600,160.37,0
16.7650,160.37,0
16.7700,72.94,0
16.7750,72.94,0
16.7800,133.50,0
16.7850,133.50,0
16.7900,-11.41,0
16.7950,-11.41,0
16.8000,-11.41,0
16.8050,17.79,0
16.8100,17.79,0
16.8150,37.93,0
16.8200,37.93,0
16.8250,109.43,0
16.8300,109.43,0
16.8350,49.62,0
16.8400,49.62,0
16.8450,160.37,0
16.8500,62.49,0
16.8550,58.51,0
16.8600,62.49,0
16.8650,164.89,0
16.8700,51.75,0
16.8750,-8.82,0
16.8800,154.94,0
16.8850,154.94,0
16.8900,154.94,0
16.8950,29.28,0
16.9000,29.28,0
16.9050,29.28,0
16.9100,17.66,0
16.9150,-23.07,0
16.9200,17.66,0
16.9250,83.50,0
16.9300,59.71,0
16.9350,83.50,0
16.9400,83.50,0
16.9450,83.50,0
16.9500,165.17,0
16.9550,80.49,0
16.9600,136.52,0
16.9650,136.52,0
16.9700,136.52,0
16.9750,102.53,0
16.9800,-1.42,0
16.9850,-1.42,0
16.9900,70.34,0
16.9950,70.34,0
17.0000,70.34,0
17.0050,102.74,0
17.0100,250.33,0
17.0150,250.33,0
17.0200,29.41,0
17.0250,29.41,0
17.0300,-688.04,0
17.0350,-688.04,0
17.0400,-692.75,0
17.0450,-692.75,0
17.0500,77.77,0
17.0550,-296.25,0
17.0600,-762.79,0
17.0650,-762.79,0
17.0700,-762.79,0
17.0750,-762.79,0
17.0800,-1033.24,0
17.0850,-1033.24,0
17.0900,83.29,0
17.0950,-1067.48,0
17.1000,-1067.48,0
17.1050,-1067.48,0
17.1100,-1156.34,0
17.1150,-3.55,0
17.1200,54.82,0
17.1250,54.82,0
17.1300,54.82,0
17.1350,54.82,0
17.1400,-66.72,0
17.1450,-66.72,0
17.1500,-66.72,0
17.1550,-21.22,0
17.1600,-80.04,0
17.1650,-80.04,0
17.1700,-80.04,0
17.1750,-170.86,0
17.1800,-170.86,0
17.1850,-170.86,0
17.1900,8.42,0
17.1950,8.42,0
17.2000,-73.52,0
17.2050,-6.42,0
17.2100,-45.09,0
17.2150,-45.09,0
17.2200,8.42,0
17.2250,4.27,0
17.2300,4.27,0
17.2350,4.27,0
17.2400,4.27,0
17.2450,-46.58,0
17.2500,-46.58,0
17.2550,-29.93,0
17.2600,-29.93,0
17.2650,-100.71,0
17.2700,170.53,0
17.2750,-133.14,0
17.2800,-133.14,0
17.2850,-96.35,0
17.2900,-71.50,0
17.2950,-71.50,0
17.3000,-71.50,0
17.3050,-71.50,0
17.3100,-9.46,0
17.3150,-9.46,0
17.3200,-13.88,0
17.3250,-94.00,0
17.3300,-13.88,0
17.3350,9.04,0
17.3400,9.04,0
17.3450,57.73,0
17.3500,57.73,0
17.3550,-94.07,0
17.3600,57.73,0
17.3650,-23.88,0
17.3700,-23.88,0
17.3750,-36.95,0
17.3800,-36.95,0
17.3850,169.36,0
17.3900,169.36,0
17.3950,-58.13,0
17.4000,-58.13,0
17.4050,-105.85,0
17.4100,-105.85,0
17.4150,64.39,0
17.4200,64.39,0
17.4250,64.39,0
17.4300,64.39,0
17.4350,64.39,0
17.4400,-142.88,0
17.4450,-67.42,0
17.4500,80.31,0
17.4550,311.08,0
17.4600,71.64,0
17.4650,311.08,0
17.4700,311.08,0
17.4750,253.85,0
17.4800,253.85,0
17.4850,253.85,0
17.4900,253.85,0
17.4950,459.05,0
17.5000,459.05,0
17.5050,1337.67,0
17.5100,1337.67,0
17.5150,1337.67,0
17.5200,1337.67,0
17.5250,59.23,0
17.5300,2171.09,0
17.5350,2171.09,0
17.5400,2171.09,0
17.5450,2095.36,0
17.5500,2095.36,0
17.5550,2095.36,0
17.5600,2095.36,0
17.5650,2152.37,0
17.5700,2152.37,0
17.5750,3008.88,0
17.5800,3008.88,0
17.5850,2832.13,0
17.5900,2832.13,0
17.5950,253.78,0
17.6000,2982.00,0
17.6050,2982.00,0
17.6100,2924.07,0
17.6150,2924.07,0
17.6200,2992.10,0
17.6250,2992.10,0
17.6300,3327.62,0
17.6350,316.55,0
17.6400,3524.60,0
17.6450,3524.60,0
17.6500,4660.63,0
17.6550,4660.63,0
17.6600,5044.89,0
17.6650,5044.89,0
17.6700,4924.23,0
17.6750,4924.23,0
17.6800,4924.23,0
17.6850,4920.07,0
17.6900,4920.07,0
17.6950,4834.74,0
17.7000,4834.74,0
17.7050,4950.91,0
17.7100,4950.91,0
17.7150,5008.66,0
17.7200,5008.66,0
17.7250,4905.87,0
17.7300,4905.87,0
17.7350,4820.26,0
17.7400,4782.90,0
17.7450,4782.90,0
17.7500,4219.63,0
17.7550,4607.77,0
17.7600,4607.77,0
17.7650,4594.86,0
17.7700,4702.86,0
17.7750,4702.86,0
17.7800,4702.86,0
17.7850,4707.32,0
17.7900,4707.32,0
17.7950,4707.32,0
17.8000,4707.32,0
17.8050,4837.84,0
17.8100,4837.84,0
17.8150,4840.51,0
17.8200,4840.51,0
17.8250,4835.90,0
17.8300,4835.90,0
17.8350,4923.53,0
17.8400,4923.53,0
17.8450,4923.53,0
17.8500,4923.53,0
17.8550,4937.82,0
17.8600,4852.76,0
17.8650,4935.62,0
17.8700,4935.62,0
17.8750,4874.19,0
17.8800,4618.56,0
17.8850,4957.75,0
17.8900,4874.19,0
17.8950,4934.33,0
17.9000,4934.33,0
17.9050,4790.77,0
17.9100,4790.77,0
17.9150,4498.15,0
17.9200,4663.17,0
17.9250,5332.44,0
17.9300,4843.57,0
17.9350,4843.57,0
17.9400,254.91,0
17.9450,388.09,0
17.9500,4895.96,0
17.9550,254.91,0
17.9600,254.91,0
17.9650,-210.27,0
17.9700,-828.30,0
17.9750,-828.30,0
17.9800,-828.30,0
17.9850,-828.30,0
17.9900,-828.30,0
17.9950,-828.30,0
18.0000,-828.30,0
18.0050,-828.30,0
18.0100,-1384.02,0
18.0150,-1384.02,0
18.0200,-1384.02,0
18.0250,-1384.02,0
18.0300,-1384.02,0
18.0350,-1153.96,0
18.0400,-1153.96,0
18.0450,-1064.87,0
18.0500,-1064.87,0
18.0550,-1064.87,0
18.0600,-1064.87,0
18.0650,-1230.42,0
18.0700,4840.42,0
18.0750,-2037.18,0
18.0800,-2037.18,0
18.0850,-1943.86,0
18.0900,-1943.86,0
18.0950,-1943.86,0
18.1000,-2017.41,0
18.1050,-2017.41,0
18.1100,-2017.41,0
18.1150,-2017.41,0
18.1200,-2017.41,0
18.1250,-2125.25,0
18.1300,-2125.25,0
18.1350,-2125.25,0
18.1400,-2125.25,0
18.1450,-2662.10,0
18.1500,-2662.10,0
18.1550,-2175.23,0
18.1600,-3366.42,0
18.1650,-4037.19,0
18.1700,-4037.19,0
18.1750,-4037.19,0
18.1800,-4037.19,0
18.1850,-5138.36,0
18.1900,-5138.36,0
18.1950,-5780.19,0
18.2000,-6153.25,0
18.2050,-6153.25,0
18.2100,-6405.41,0
18.2150,-6405.41,0
18.2200,-6405.41,0
18.2250,-6405.41,0
18.2300,-6516.47,0
18.2350,-6405.41,0
18.2400,-7094.77,0
18.2450,-7094.77,0
18.2500,-7055.33,0
18.2550,-4037.18,0
18.2600,-7489.84,0
18.2650,-7489.84,0
18.2700,-7489.84,0
18.2750,-7184.16,0
18.2800,-7184.16,0
18.2850,-7770.34,0
18.2900,-7565.04,0
18.2950,-7565.04,0
18.3000,-7565.04,0
18.3050,-6813.14,0
18.3100,-6813.14,0
18.3150,-6856.48,0
18.3200,-6856.48,0
18.3250,-6856.48,0
18.3300,-6856.48,0
18.3350,-6856.48,0
18.3400,-6856.48,0
18.3450,-6793.10,0
18.3500,-5954.51,0
18.3550,-7483.68,0
18.3600,-6062.91,0
18.3650,-6762.06,0
18.3700,-6788.58,0
18.3750,-6762.06,0
18.3800,-6762.06,0
18.3850,-6838.79,0
18.3900,-6838.79,0
18.3950,-6862.10,0
18.4000,-7581.27,0
18.4050,-6890.48,0
18.4100,-6890.48,0
18.4150,-6906.00,0
18.4200,-6899.25,0
18.4250,-6899.25,0
18.4300,-6899.25,0
18.4350,-6943.10,0
18.4400,-6943.10,0
18.4450,-6913.76,0
18.4500,-7520.29,0
18.4550,-6909.85,0
18.4600,-6909.85,0
18.4650,-6909.85,0
18.4700,-6909.85,0
18.4750,-6872.72,0
18.4800,-7077.64,0
18.4850,-6998.18,0
18.4900,-6817.42,0
18.4950,-6998.18,0
18.5000,-6839.23,0
18.5050,-6971.25,0
18.5100,-6971.25,0
18.5150,-6872.71,0
18.5200,-6971.25,0
18.5250,-6855.34,0
18.5300,-6870.58,0
18.5350,-6719.75,0
18.5400,-6719.75,0
18.5450,-6719.75,0
18.5500,-7028.37,0
18.5550,-7028.37,0
18.5600,-7061.32,0
18.5650,-7061.32,0
18.5700,-7009.72,0
18.5750,-7009.72,0
18.5800,-7009.72,0
18.5850,-6943.58,0
18.5900,-6939.98,0
18.5950,-6939.98,0
18.6000,-6939.98,0
18.6050,-6939.98,0
18.6100,-6806.64,0
18.6150,-6806.64,0
18.6200,-7494.66,0
18.6250,-7494.66,0
18.6300,-7494.66,0
18.6350,-7494.66,0
18.6400,-7008.95,0
18.6450,-7494.66,0
18.6500,-6979.22,0
18.6550,-7032.14,0
18.6600,-6810.64,0
18.6650,-6810.64,0
18.6700,-6789.42,0
18.6750,-6789.42,0
18.6800,-6765.74,0
18.6850,-6765.74,0
18.6900,-6820.78,0
18.6950,-6820.78,0
18.7000,-6678.57,0
18.7050,-6678.57,0
18.7100,-6678.57,0
18.7150,-6678.57,0
18.7200,-6799.59,0
18.7250,-6799.59,0
18.7300,-6924.55,0
18.7350,-6924.55,0
18.7400,-6924.55,0
18.7450,-6897.23,0
18.7500,-6256.35,0
18.7550,-6256.35,0
18.7600,-6256.35,0
18.7650,211.79,0
18.7700,211.79,0
18.7750,211.79,0
18.7800,211.79,0
18.7850,118.66,0
18.7900,118.66,0
18.7950,137.63,0
18.8000,137.63,0
18.8050,323.66,0
18.8100,323.66,0
18.8150,342.77,0
18.8200,342.77,0
18.8250,342.77,0
18.8300,176.90,0
18.8350,176.90,0
18.8400,67.78,0
18.8450,67.78,0
18.8500,47.67,0
18.8550,47.67,0
18.8600,57.21,0
18.8650,57.21,0
18.8700,-7964.13,0
18.8750,57.21,0
18.8800,57.21,0
18.8850,-6905.07,0
18.8900,-98.66,0
18.8950,-98.66,0
18.9000,-98.66,0
18.9050,-152.70,0
18.9100,-152.70,0
18.9150,-152.70,0
18.9200,-152.70,0
18.9250,-241.23,0
18.9300,-241.23,0
18.9350,-764.94,0
18.9400,-764.94,0
18.9450,-584.52,0
18.9500,11.22,0
18.9550,-1610.85,0
18.9600,-1610.85,0
18.9650,-1963.35,0
18.9700,-1915.46,0
18.9750,-1915.46,0
18.9800,-1999.54,0
18.9850,-1999.54,0
18.9900,-1999.54,0
18.9950,-1999.54,0
19.0000,-1999.54,0
19.0050,-1988.58,0
19.0100,-1988.58,0
19.0150,-1832.63,0
19.0200,-1832.63,0
19.0250,-1875.56,0
19.0300,-1875.56,0
19.0350,-1835.31,0
19.0400,-152.26,0
19.0450,-1835.31,0
19.0500,-1835.31,0
19.0550,-1708.85,0
19.0600,-1708.85,0
19.0650,-1708.85,0
19.0700,-1764.62,0
19.0750,-1764.62,0
19.0800,-1720.40,0
19.0850,-1700.86,0
19.0900,-1700.86,0
19.0950,-1700.86,0
19.1000,-1719.42,0
19.1050,-1719.42,0
19.1100,-1892.67,0
19.1150,-1817.76,0
19.1200,-1772.50,0
19.1250,-1637.92,0
19.1300,-1815.89,0
19.1350,-1815.89,0
19.1400,-1815.89,0
19.1450,-1815.89,0
19.1500,-1833.69,0
19.1550,-1843.44,0
19.1600,-1843.44,0
19.1650,-1843.44,0
19.1700,-1915.91,0
19.1750,-1915.91,0
19.1800,-1761.20,0
19.1850,-1761.20,0
19.1900,-1761.20,0
19.1950,-1761.20,0
19.2000,-1761.20,0
19.2050,-1761.20,0
19.2100,-1959.79,0
19.2150,-1959.79,0
19.2200,-1981.45,0
19.2250,-1981.45,0
19.2300,-2003.75,0
19.2350,-2003.75,0
19.2400,-2025.03,0
19.2450,-1761.20,0
19.2500,-1962.08,0
19.2550,-1962.08,0
19.2600,-1962.08,0
19.2650,-1962.08,0
19.2700,-1959.68,0
19.2750,-1959.68,0
19.2800,-1929.13,0
19.2850,-1929.13,0
19.2900,-2079.14,0
19.2950,-2079.14,0
19.3000,-2025.47,0
19.3050,-2025.47,0
19.3100,-1988.68,0
19.3150,-1988.68,0
19.3200,-1785.24,0
19.3250,-1785.24,0
19.3300,-1781.90,0
19.3350,-1785.24,0
19.3400,-1858.81,0
19.3450,-1825.80,0
19.3500,-1930.98,0
19.3550,-1930.98,0
19.3600,-1930.98,0
19.3650,-1897.42,0
19.3700,-1798.32,0
19.3750,-1798.32,0
19.3800,-1878.72,0
19.3850,-1878.72,0
19.3900,-1943.26,0
19.3950,-1943.26,0
19.4000,-1943.26,0
19.4050,-1920.89,0
19.4100,-1920.89,0
19.4150,-1933.40,0
19.4200,-1858.81,0
19.4250,-1933.40,0
19.4300,-1933.40,0
19.4350,-1832.47,0
19.4400,-1898.25,0
19.4450,-2451.00,0
19.4500,-2451.00,0
19.4550,-1873.66,0
19.4600,-2451.00,0
19.4650,-1952.56,0
19.4700,-1952.56,0
19.4750,-2247.65,0
19.4800,-1952.78,0
19.4850,-1885.74,0
19.4900,-1885.74,0
19.4950,-1782.46,0
19.5000,-1782.46,0
19.5050,-1782.46,0
19.5100,-1872.81,0
19.5150,-1872.81,0
19.5200,-1872.81,0
19.5250,-1867.76,0
19.5300,-1867.76,0
19.5350,-1929.84,0
19.5400,-1929.84,0
19.5450,-2003.57,0
19.5500,-2003.57,0
19.5550,-2025.93,0
19.5600,-2025.93,0
19.5650,-2025.93,0
19.5700,-2018.20,0
19.5750,-2053.88,0
19.5800,-140.92,0
19.5850,-140.92,0
19.5900,-75.44,0
19.5950,-75.44,0
19.6000,225.01,0
19.6050,-1924.07,0
19.6100,176.99,0
19.6150,176.99,0
19.6200,105.70,0
19.6250,105.70,0
19.6300,-2050.06,0
19.6350,-120.13,0
19.6400,-25.16,0
19.6450,-149.45,0
19.6500,-149.45,0
19.6550,-36.36,0
19.6600,-36.36,0
19.6650,-128.71,0
19.6700,-128.71,0
19.6750,-110.02,0
19.6800,-110.02,0
19.6850,-110.02,0
19.6900,-110.02,0
19.6950,-110.02,0
19.7000,-110.02,0
19.7050,-126.26,0
19.7100,59.91,0
19.7150,52.89,0
19.7200,52.89,0
19.7250,117.85,0
19.7300,117.85,0
19.7350,117.85,0
19.7400,117.85,0
19.7450,-125.17,0
19.7500,106.84,0
19.7550,181.43,0
19.7600,181.43,0
19.7650,181.43,0
19.7700,183.79,0
19.7750,197.35,0
19.7800,197.35,0
19.7850,188.07,0
19.7900,188.07,0
19.7950,99.84,0
19.8000,99.84,0
19.8050,4.78,0
19.8100,4.78,0
19.8150,-339.44,0
19.8200,-339.44,0
19.8250,-220.42,0
19.8300,183.79,0
19.8350,-220.42,0
19.8400,68.43,0
19.8450,38.13,0
19.8500,38.13,0
19.8550,38.13,0
19.8600,-347.10,0
19.8650,65.62,0
19.8700,-68.48,0
19.8750,74.02,0
19.8800,1.77,0
19.8850,177.35,0
19.8900,177.35,0
19.8950,-74.91,0
19.9000,-74.91,0
19.9050,-74.91,0
19.9100,-46.06,0
19.9150,-46.06,0
19.9200,-5.86,0
19.9250,-5.86,0
19.9300,-36.36,0
19.9350,-36.36,0
19.9400,123.56,0
19.9450,123.56,0
19.9500,146.15,0
19.9550,146.15,0
19.9600,55.07,0
19.9650,68.58,0
19.9700,80.62,0
19.9750,80.62,0
19.9800,43.15,0
19.9850,43.15,0
19.9900,25.46,0
19.9950,29.68,0
20.0000,29.68,0
20.0050,29.68,0
20.0100,68.14,0
20.0150,37.16,0
20.0200,22.36,0
20.0250,25.46,0
20.0300,22.36,0
20.0350,-46.02,0
20.0400,2.26,0
20.0450,2.26,0
20.0500,89.45,0
20.0550,107.08,0
20.0600,16.86,0
20.0650,16.86,0
20.0700,16.86,0
20.0750,-97.20,0
20.0800,16.86,0
20.0850,-88.52,0
20.0900,43.05,0
20.0950,-254.30,0
20.1000,-254.30,0
20.1050,-57.99,0
20.1100,-57.99,0
20.1150,406.51,0
20.1200,406.51,0
20.1250,406.51,0
20.1300,406.51,0
20.1350,737.19,0
20.1400,737.19,0
20.1450,737.19,0
20.1500,737.19,0
20.1550,1800.07,0
20.1600,1800.07,0
20.1650,2086.73,0
20.1700,2086.73,0
20.1750,2086.73,0
20.1800,2086.73,0
20.1850,2022.14,0
20.1900,2022.14,0
20.1950,1848.31,0
20.2000,1848.31,0
20.2050,1926.22,0
20.2100,1926.22,0
20.2150,1951.84,0
20.2200,1951.84,0
20.2250,1951.84,0
20.2300,1951.84,0
20.2350,1951.84,0
20.2400,1951.84,0
20.2450,1943.43,0
20.2500,1943.43,0
20.2550,1922.82,0
20.2600,1922.82,0
20.2650,1922.82,0
20.2700,1922.82,0
20.2750,1906.44,0
20.2800,1906.44,0
20.2850,1947.80,0
20.2900,1947.80,0
20.2950,1947.80,0
20.3000,1947.80,0
20.3050,2068.95,0
20.3100,2068.95,0
20.3150,2068.95,0
20.3200,2068.95,0
20.3250,2068.95,0
20.3300,2068.95,0
20.3350,2068.95,0
20.3400,2068.95,0
20.3450,1892.19,0
20.3500,1960.00,1
20.3550,1854.76,0
20.3600,1723.22,0
20.3650,1642.55,0
20.3700,1642.55,0
20.3750,1544.44,0
20.3800,1544.44,0
20.3850,1544.44,0
20.3900,1544.44,0
20.3950,1968.26,0
20.4000,410.44,0
20.4050,410.44,0
20.4100,410.44,0
20.4150,410.44,0
20.4200,639.70,0
20.4250,639.70,0
20.4300,873.07,0
20.4350,873.07,0
20.4400,764.17,0
20.4450,1642.56,0
20.4500,764.17,0
20.4550,764.17,0
20.4600,488.97,0
20.4650,488.97,0
20.4700,1048.79,0
20.4750,1048.79,0
20.4800,853.74,0
20.4850,853.74,0
20.4900,1067.43,0
20.4950,1067.43,0
20.5000,1067.43,0
20.5050,1879.95,0
20.5100,1193.89,0
20.5150,1193.89,0
20.5200,1179.22,0
20.5250,1179.22,0
20.5300,1112.93,0
20.5350,1112.93,0
20.5400,1112.93,0
20.5450,1112.93,0
20.5500,1052.22,0
20.5550,1112.48,0
20.5600,1254.01,0
20.5650,1254.01,0
20.5700,1254.01,0
20.5750,1254.01,0
20.5800,1254.01,0
20.5850,1254.01,0
20.5900,1254.01,0
20.5950,1112.48,0
20.6000,1154.18,0
20.6050,1154.18,0
20.6100,1760.22,0
20.6150,1760.22,0
20.6200,1702.53,0
20.6250,917.71,0
20.6300,1702.53,0
20.6350,1702.53,0
20.6400,825.99,0
20.6450,825.99,0
20.6500,965.51,0
20.6550,965.51,0
20.6600,1070.91,0
20.6650,1197.04,0
20.6700,1070.91,0
20.6750,1070.91,0
20.6800,1070.91,0
20.6850,1070.91,0
20.6900,1070.91,0
20.6950,1070.91,0
20.7000,1070.91,0
20.7050,772.54,0
20.7100,857.14,0
20.7150,857.14,0
20.7200,857.14,0
20.7250,420.17,0
20.7300,420.17,0
20.7350,280.54,0
20.7400,280.54,0
20.7450,107.82,0
20.7500,107.82,0
20.7550,301.18,0
20.7600,301.18,0
20.7650,337.19,0
20.7700,1343.95,0
20.7750,1343.95,0
20.7800,876.17,0
20.7850,876.17,0
20.7900,876.17,0
20.7950,876.17,0
20.8000,2044.68,0
20.8050,788.35,0
20.8100,1155.79,0
20.8150,1155.79,0
20.8200,-109.49,0
20.8250,-109.49,0
20.8300,-578.76,0
20.8350,-578.76,0
20.8400,-578.76,0
20.8450,-578.76,0
20.8500,-542.46,0
20.8550,-542.46,0
20.8600,-542.46,0
20.8650,-392.76,0
20.8700,-598.40,0
20.8750,1154.65,0
20.8800,-754.34,0
20.8850,-754.34,0
20.8900,-754.34,0
20.8950,-754.34,0
20.9000,-858.72,0
20.9050,-858.72,0
20.9100,-965.32,0
20.9150,-754.34,0
20.9200,-1015.80,0
20.9250,-1026.64,0
20.9300,-1026.64,0
20.9350,-1026.64,0
20.9400,-1026.64,0
20.9450,-1026.64,0
20.9500,-1026.64,0
20.9550,-1097.43,0
20.9600,-1097.43,0
20.9650,-887.64,0
20.9700,-887.64,0
20.9750,-507.51,0
20.9800,-507.51,0
20.9850,-750.58,0
20.9900,-472.17,0
20.9950,-36.22,0
21.0000,-36.22,0
21.0050,490.90,0
21.0100,490.90,0
21.0150,1395.61,0
21.0200,-669.87,0
21.0250,1692.87,0
21.0300,1692.87,0
21.0350,1692.87,0
21.0400,1692.87,0
21.0450,1692.87,0
21.0500,-1054.54,0
21.0550,1997.45,0
21.0600,1997.45,0
21.0650,2073.75,0
21.0700,2073.75,0
21.0750,2045.88,0
21.0800,2045.88,0
21.0850,-1047.92,0
21.0900,1667.76,0
21.0950,1406.28,0
21.1000,-930.83,0
21.1050,-516.18,0
21.1100,1491.54,0
21.1150,2068.45,0
21.1200,1692.02,0
21.1250,1692.02,0
21.1300,1752.15,0
21.1350,1692.02,0
21.1400,1879.44,0
21.1450,1879.44,0
21.1500,1852.73,0
21.1550,1852.73,0
21.1600,1932.74,0
21.1650,1932.74,0
21.1700,2031.53,0
21.1750,2031.53,0
21.1800,2031.53,0
21.1850,1998.11,0
21.1900,1998.11,0
21.1950,1998.11,0
21.2000,128.73,0
21.2050,128.73,0
21.2100,307.84,0
21.2150,1998.11,0
21.2200,558.31,0
21.2250,558.31,0
21.2300,310.43,0
21.2350,116.64,0
21.2400,116.64,0
21.2450,485.06,0
21.2500,485.06,0
21.2550,2121.87,0
21.2600,485.06,0
21.2650,485.06,0
21.2700,887.08,0
21.2750,1229.31,0
21.2800,1826.65,0
21.2850,1201.28,0
21.2900,1201.28,0
21.2950,1201.28,0
21.3000,1201.28,0
21.3050,1201.28,0
21.3100,1201.28,0
21.3150,1201.28,0
21.3200,956.99,0
21.3250,956.99,0
21.3300,1466.24,0
21.3350,1466.24,0
21.3400,1762.20,0
21.3450,1762.20,0
21.3500,1331.83,0
21.3550,1331.83,0
21.3600,1270.56,0
21.3650,1270.56,0
21.3700,1204.46,0
21.3750,1204.46,0
21.3800,691.99,0
21.3850,691.99,0
21.3900,691.99,0
21.3950,935.99,0
21.4000,1212.95,0
21.4050,1272.08,0
21.4100,1339.28,0
21.4150,1539.15,0
21.4200,1539.15,0
21.4250,1892.48,0
21.4300,1892.48,0
21.4350,1892.48,0
21.4400,1892.48,0
21.4450,1892.48,0
21.4500,2956.67,0
21.4550,2956.67,0
21.4600,2289.88,0
21.4650,2289.88,0
21.4700,1318.74,0
21.4750,1318.74,0
21.4800,458.84,0
21.4850,458.84,0
21.4900,458.84,0
21.4950,458.84,0
21.5000,458.84,0
21.5050,458.84,0
21.5100,-358.49,0
21.5150,-1243.49,0
21.5200,-1243.49,0
21.5250,-1553.00,0
21.5300,-1553.00,0
21.5350,-1698.44,0
21.5400,-1698.44,0
21.5450,-1698.44,0
21.5500,-2102.56,0
21.5550,-2301.00,0
21.5600,1359.12,0
21.5650,-3069.16,0
21.5700,-3069.16,0
21.5750,-3069.16,0
21.5800,-3069.16,0
21.5850,-3106.65,0
21.5900,-3106.65,0
21.5950,-3106.65,0
21.6000,-3171.61,0
21.6050,-3171.61,0
21.6100,-3171.61,0
21.6150,1438.92,0
21.6200,-3171.61,0
21.6250,-3383.99,0
21.6300,-3106.65,0
21.6350,-3116.17,0
21.6400,-3320.47,0
21.6450,-3320.47,0
21.6500,-3184.35,0
21.6550,-3184.35,0
21.6600,-3184.35,0
21.6650,-3184.35,0
21.6700,-3184.35,0
21.6750,-3184.35,0
21.6800,-4279.90,0
21.6850,-4279.90,0
21.6900,-4427.24,0
21.6950,-4427.24,0
21.7000,-4868.36,0
21.7050,-4868.36,0
21.7100,-4576.93,0
21.7150,-1543.03,0
21.7200,-4614.85,0
21.7250,-4614.85,0
21.7300,-4738.15,0
21.7350,-4200.44,0
21.7400,-4200.44,0
21.7450,-4417.27,0
21.7500,-4417.27,0
21.7550,-4417.27,0
21.7600,-4417.27,0
21.7650,-4417.27,0
21.7700,-2979.39,0
21.7750,-4345.60,0
21.7800,-4345.60,0
21.7850,-4330.70,0
21.7900,-4330.70,0
21.7950,-4292.77,0
21.8000,-4292.77,0
21.8050,-4683.08,0
21.8100,-4683.08,0
21.8150,-4683.08,0
21.8200,-4429.10,0
21.8250,-4429.10,0
21.8300,-4096.42,0
21.8350,-4096.42,0
21.8400,-3156.70,0
21.8450,-3156.70,0
21.8500,-3156.70,0
21.8550,-3108.80,0
21.8600,-3108.80,0
21.8650,-2974.24,0
21.8700,-2974.24,0
21.8750,-2974.24,0
21.8800,-2974.24,0
21.8850,-3023.73,0
21.8900,-3023.73,0
21.8950,-3216.64,0
21.9000,-3216.64,0
21.9050,-3113.76,0
21.9100,-3113.76,0
21.9150,-3139.64,0
21.9200,-3139.64,0
21.9250,-3139.64,0
21.9300,-2987.80,0
21.9350,-3939.33,0
21.9400,-3106.82,0
21.9450,-4361.59,0
21.9500,-3614.22,0
21.9550,-5124.20,0
21.9600,-5147.11,0
21.9650,-4918.40,0
21.9700,-5862.83,0
21.9750,-5862.83,0
21.9800,-6489.65,0
21.9850,-6489.65,0
21.9900,-6489.65,0
21.9950,-6489.65,0
22.0000,-6489.65,0
22.0050,-6489.65,0
22.0100,-6682.39,0
22.0150,-6682.39,0
22.0200,244.48,0
22.0250,244.48,0
22.0300,244.48,0
22.0350,244.48,0
22.0400,273.83,0
22.0450,244.48,0
22.0500,62.98,0
22.0550,62.98,0
22.0600,99.14,0
22.0650,99.14,0
22.0700,99.14,0
22.0750,-6682.39,0
22.0800,53.91,0
22.0850,123.72,0
22.0900,123.72,0
22.0950,123.72,0
22.1000,33.53,0
22.1050,33.53,0
22.1100,33.53,0
22.1150,33.53,0
22.1200,-2.50,0
22.1250,-45.78,0
22.1300,-45.78,0
22.1350,0.95,0
22.1400,0.95,0
22.1450,-12.11,0
22.1500,-12.11,0
22.1550,-12.11,0
22.1600,-24.31,0
22.1650,-12.11,0
22.1700,-12.11,0
22.1750,106.45,0
22.1800,106.45,0
22.1850,106.45,0
22.1900,60.31,0
22.1950,60.31,0
22.2000,14.62,0
22.2050,14.62,0
22.2100,123.34,0
22.2150,14.62,0
22.2200,14.62,0
22.2250,14.62,0
22.2300,-51.96,0
22.2350,-51.96,0
22.2400,-65.16,0
22.2450,-65.16,0
22.2500,35.52,0
22.2550,35.52,0
22.2600,-112.61,0
22.2650,-112.61,0
22.2700,-58.80,0
22.2750,4.20,0
22.2800,7.35,0
22.2850,7.35,0
22.2900,53.40,0
22.2950,53.40,0
22.3000,53.40,0
22.3050,-58.50,0
22.3100,-58.50,0
22.3150,-58.50,0
22.3200,-57.58,0
22.3250,-57.58,0
22.3300,-57.58,0
22.3350,-57.58,0
22.3400,1089.83,0
22.3450,-61.19,0
22.3500,1089.83,0
22.3550,1089.83,0
22.3600,1087.22,0
22.3650,1087.22,0
22.3700,1343.86,0
22.3750,53.40,0
22.3800,1343.86,0
22.3850,2428.24,0
22.3900,2428.24,0
22.3950,2428.24,0
22.4000,1891.50,0
22.4050,1891.50,0
22.4100,2530.87,0
22.4150,2530.87,0
22.4200,2667.99,0
22.4250,2667.99,0
22.4300,2454.61,0
22.4350,-57.65,0
22.4400,2304.55,0
22.4450,2304.55,0
22.4500,2530.87,0
22.4550,2375.15,0
22.4600,2375.15,0
22.4650,2608.04,0
22.4700,2608.04,0
22.4750,1436.08,0
22.4800,1436.08,0
22.4850,1436.08,0
22.4900,1436.08,0
22.4950,1436.08,0
22.5000,2658.54,0
22.5050,2967.21,0
22.5100,2967.21,0
22.5150,2967.21,0
22.5200,3005.53,0
22.5250,2820.15,0
22.5300,2987.19,0
22.5350,2987.19,0
22.5400,3669.20,0
22.5450,3669.20,0
22.5500,3669.20,0
22.5550,3669.20,0
22.5600,2850.75,0
22.5650,2591.77,0
22.5700,2854.15,0
22.5750,2377.73,0
22.5800,2377.73,0
22.5850,4511.07,0
22.5900,4511.07,0
22.5950,2376.48,0
22.6000,4511.07,0
22.6050,4615.86,0
22.6100,4615.86,0
22.6150,3914.66,0
22.6200,3476.52,0
22.6250,3709.84,0
22.6300,3709.84,0
22.6350,2850.38,0
22.6400,3826.36,0
22.6450,2850.38,0
22.6500,4051.10,0
22.6550,4051.10,0
22.6600,3805.79,0
22.6650,3805.79,0
22.6700,3805.79,0
22.6750,3805.79,0
22.6800,3387.69,0
22.6850,2734.45,0
22.6900,3299.74,0
22.6950,3299.74,0
22.7000,3508.98,0
22.7050,3508.98,0
22.7100,3760.24,0
22.7150,3760.24,0
22.7200,3760.24,0
22.7250,3616.91,0
22.7300,3616.91,0
22.7350,3616.91,0
22.7400,3600.01,0
22.7450,3605.31,0
22.7500,3600.01,0
22.7550,3600.01,0
22.7600,3600.01,0
22.7650,3655.80,0
22.7700,3655.80,0
22.7750,3691.77,0
22.7800,3691.77,0
22.7850,3691.77,0
22.7900,3555.10,0
22.7950,3783.64,0
22.8000,3363.87,0
22.8050,3363.87,0
22.8100,3145.02,0
22.8150,3145.02,0
22.8200,3145.02,0
22.8250,3304.87,0
22.8300,3846.53,0
22.8350,3846.53,0
22.8400,3846.53,0
22.8450,3846.53,0
22.8500,19.02,0
22.8550,19.02,0
22.8600,3852.99,0
22.8650,-58.21,0
22.8700,-58.21,0
22.8750,3555.09,0
22.8800,-65.91,0
22.8850,-65.91,0
22.8900,-28.31,0
22.8950,-28.31,0
22.9000,-52.89,0
22.9050,-32.79,0
22.9100,-32.79,0
22.9150,-32.79,0
22.9200,-170.33,0
22.9250,-52.70,0
22.9300,-170.33,0
22.9350,-170.33,0
22.9400,-170.33,0
22.9450,-170.33,0
22.9500,-84.57,0
22.9550,-84.57,0
22.9600,-7.97,0
22.9650,-7.97,0
22.9700,-10.02,0
22.9750,-10.02,0
22.9800,-10.02,0
22.9850,-10.02,0
22.9900,-10.44,0
22.9950,-10.44,0
23.0000,10.98,0
23.0050,-36.07,0
23.0100,15.52,0
23.0150,15.52,0
23.0200,3223.93,0
23.0250,-10.02,0
23.0300,3.74,0
23.0350,3.74,0
23.0400,-143.01,0
23.0450,-143.01,0
23.0500,-143.01,0
23.0550,-143.01,0
23.0600,140.52,0
23.0650,140.52,0
23.0700,84.98,0
23.0750,84.98,0
23.0800,5.13,0
23.0850,5.13,0
23.0900,37.87,0
23.0950,92.69,0
23.1000,76.29,0
23.1050,76.29,0
23.1100,97.42,0
23.1150,97.42,0
23.1200,-12.99,0
23.1250,97.42,0
23.1300,107.25,0
23.1350,107.25,0
23.1400,6.19,0
23.1450,78.83,0
23.1500,-89.76,0
23.1550,-37.70,0
23.1600,-37.70,0
23.1650,-44.78,0
23.1700,98.07,0
23.1750,73.09,0
23.1800,73.09,0
23.1850,73.09,0
23.1900,116.59,0
23.1950,109.21,0
23.2000,116.59,0
23.2050,116.59,0
23.2100,116.59,0
23.2150,116.59,0
23.2200,229.67,0
23.2250,170.36,0
23.2300,170.36,0
23.2350,170.36,0
23.2400,218.38,0
23.2450,218.38,0
23.2500,218.38,0
23.2550,218.38,0
23.2600,218.38,0
23.2650,44.48,0
23.2700,176.08,0
23.2750,176.08,0
23.2800,299.65,0
23.2850,453.36,0
23.2900,453.36,0
23.2950,453.36,0
23.3000,98.95,0
23.3050,563.85,0
23.3100,563.85,0
23.3150,580.11,0
23.3200,580.11,0
23.3250,138.40,0
23.3300,367.72,0
23.3350,786.23,0
23.3400,786.23,0
23.3450,957.84,0
23.3500,957.84,0
23.3550,400.74,0
23.3600,851.17,0
23.3650,403.53,0
23.3700,403.53,0
23.3750,403.53,0
23.3800,593.75,0
23.3850,654.14,0
23.3900,654.14,0
23.3950,654.14,0
23.4000,578.19,0
23.4050,578.19,0
23.4100,866.86,0
23.4150,866.86,0
23.4200,866.86,0
23.4250,866.86,0
23.4300,866.86,0
23.4350,1092.88,0
23.4400,831.63,0
23.4450,841.63,0
23.4500,841.63,0
23.4550,841.63,0
23.4600,841.63,0
23.4650,819.05,0
23.4700,819.05,0
23.4750,819.05,0
23.4800,819.05,0
23.4850,791.76,0
23.4900,791.76,0
23.4950,689.93,0
23.5000,689.93,0
23.5050,1005.26,0
23.5100,1005.26,0
23.5150,1005.26,0
23.5200,1005.26,0
23.5250,1058.09,0
23.5300,1058.09,0
23.5350,688.15,0
23.5400,1118.73,0
23.5450,569.78,0
23.5500,569.78,0
23.5550,569.78,0
23.5600,360.35,0
23.5650,706.62,0
23.5700,956.45,0
23.5750,706.62,0
23.5800,706.62,0
23.5850,354.09,0
23.5900,354.09,0
23.5950,354.09,0
23.6000,435.79,0
23.6050,484.51,0
23.6100,484.51,0
23.6150,484.51,0
23.6200,518.74,0
23.6250,873.76,0
23.6300,595.03,0
23.6350,956.44,0
23.6400,365.58,0
23.6450,365.58,0
23.6500,696.63,0
23.6550,696.63,0
23.6600,696.63,0
23.6650,655.98,0
23.6700,655.98,0
23.6750,-125.20,0
23.6800,-125.20,0
23.6850,-125.20,0
23.6900,696.63,0
23.6950,-4.13,0
23.7000,-4.13,0
23.7050,30.07,0
23.7100,-148.97,0
23.7150,30.07,0
23.7200,-62.94,0
23.7250,-162.32,0
23.7300,-162.32,0
23.7350,-162.32,0
23.7400,-275.24,0
23.7450,-275.24,0
23.7500,-275.24,0
23.7550,10.34,0
23.7600,10.34,0
23.7650,10.34,0
23.7700,-17.28,0
23.7750,-17.28,0
23.7800,82.92,0
23.7850,82.92,0
23.7900,82.92,0
23.7950,70.19,0
23.8000,70.19,0
23.8050,8.11,0
23.8100,8.11,0
23.8150,65.28,0
23.8200,65.28,0
23.8250,-2.69,0
23.8300,27.75,0
23.8350,-2.69,0
23.8400,-2.69,0
23.8450,-2.69,0
23.8500,-2.69,0
23.8550,-9.59,0
23.8600,-9.59,0
23.8650,27.96,0
23.8700,-12.58,0
23.8750,-47.79,0
23.8800,-47.79,0
23.8850,-47.79,0
23.8900,61.34,0
23.8950,61.34,0
23.9000,61.34,0
23.9050,359.62,0
23.9100,359.62,0
23.9150,446.43,0
23.9200,446.43,0
23.9250,446.43,0
23.9300,446.43,0
23.9350,-271.00,0
23.9400,97.36,0
23.9450,214.19,0
23.9500,116.84,0
23.9550,214.19,0
23.9600,214.19,0
23.9650,100.55,0
23.9700,100.55,0
23.9750,-37.82,0
23.9800,-37.82,0
23.9850,-60.36,0
23.9900,133.11,0
23.9950,-67.51,0
24.0000,-67.51,0
24.0050,-66.66,0
24.0100,-66.66,0
24.0150,-74.91,0
24.0200,-74.91,0
24.0250,-74.91,0
24.0300,-74.91,0
24.0350,-74.91,0
24.0400,-146.61,0
24.0450,-146.61,0
24.0500,-50.87,0
24.0550,-50.87,0
24.0600,-118.61,0
24.0650,-118.61,0
24.0700,-118.61,0
24.0750,-118.61,0
24.0800,-78.31,0
24.0850,-78.31,0
24.0900,10.43,0
24.0950,-16.82,0
24.1000,16.08,0
24.1050,16.08,0
24.1100,16.08,0
24.1150,16.08,0
24.1200,16.08,0
24.1250,-19.76,0
24.1300,-19.76,0
24.1350,18.47,0
24.1400,18.47,0
24.1450,-102.64,0
24.1500,-102.64,0
24.1550,-102.64,0
24.1600,-102.64,0
24.1650,-102.64,0
24.1700,-102.64,0
24.1750,-161.54,0
24.1800,-66.60,0
24.1850,-107.65,0
24.1900,-107.65,0
24.1950,-107.65,0
24.2000,-107.65,0
24.2050,-107.65,0
24.2100,-107.65,0
24.2150,-101.77,0
24.2200,-63.21,0
24.2250,-46.32,0
24.2300,-46.32,0
24.2350,-60.40,0
24.2400,-60.40,0
24.2450,-2.65,0
24.2500,-2.65,0
24.2550,-2.65,0
24.2600,-2.65,0
24.2650,105.67,0
24.2700,105.67,0
24.2750,27.72,0
24.2800,27.72,0
24.2850,27.72,0
24.2900,27.72,0
24.2950,-101.77,0
24.3000,27.72,0
24.3050,27.72,0
24.3100,14.09,0
24.3150,14.09,0
24.3200,-63.13,0
24.3250,-66.94,0
24.3300,-66.94,0
24.3350,-66.94,0
24.3400,-2.65,0
24.3450,-2.12,0
24.3500,45.43,0
24.3550,45.43,0
24.3600,45.43,0
24.3650,45.43,0
24.3700,28.44,0
24.3750,28.44,0
24.3800,28.44,0
24.3850,28.44,0
24.3900,35.50,0
24.3950,35.50,0
24.4000,22.42,0
24.4050,22.42,0
24.4100,22.42,0
24.4150,65.99,0
24.4200,-19.81,0
24.4250,62.66,0
24.4300,-2.72,0
24.4350,-2.72,0
24.4400,40.52,0
24.4450,40.52,0
24.4500,83.68,0
24.4550,83.68,0
24.4600,38.46,0
24.4650,38.46,0
24.4700,42.54,0
24.4750,42.54,0
24.4800,42.54,0
24.4850,-2.60,0
24.4900,38.95,0
24.4950,-9.17,0
24.5000,-54.55,0
24.5050,-9.17,0
24.5100,-81.88,0
24.5150,-81.88,0
24.5200,-81.88,0
24.5250,-81.88,0
24.5300,-81.88,0
24.5350,-124.97,0
24.5400,-124.97,0
24.5450,21.89,0
24.5500,21.89,0
24.5550,21.89,0
24.5600,49.11,0
24.5650,49.11,0
24.5700,49.11,0
24.5750,49.11,0
24.5800,49.11,0
24.5850,49.11,0
24.5900,28.75,0
24.5950,28.75,0
24.6000,20.25,0
24.6050,20.25,0
24.6100,20.25,0
24.6150,20.25,0
24.6200,23.59,0
24.6250,23.09,0
24.6300,32.04,0
24.6350,20.87,0
24.6400,20.87,0
24.6450,57.70,0
24.6500,20.87,0
24.6550,15.58,0
24.6600,23.59,0
24.6650,12.35,0
24.6700,22.67,0
24.6750,14.63,0
24.6800,14.63,0
24.6850,14.63,0
24.6900,14.63,0
24.6950,22.50,0
24.7000,22.50,0
24.7050,20.28,0
24.7100,20.28,0
24.7150,13.54,0
24.7200,13.54,0
24.7250,4.67,0
24.7300,4.67,0
24.7350,4.67,0
24.7400,4.67,0
24.7450,4.67,0
24.7500,4.67,0
24.7550,0.47,0
24.7600,0.47,0
24.7650,0.47,0
24.7700,-1.67,0
24.7750,-1.67,0
24.7800,2.12,0
24.7850,2.12,0
24.7900,22.26,0
24.7950,2.12,0
24.8000,2.12,0
24.8050,2.12,0
24.8100,-8.06,0
24.8150,-8.06,0
24.8200,22.40,0
24.8250,1.85,0
24.8300,1.85,0
24.8350,1.85,0
24.8400,13.28,0
24.8450,13.28,0
24.8500,-1.46,0
24.8550,-1.46,0
24.8600,-1.46,0
24.8650,-1.46,0
24.8700,6.91,0
24.8750,6.91,0
24.8800,35.64,0
24.8850,35.64,0
24.8900,38.67,0
24.8950,38.67,0
24.9000,45.91,0
24.9050,45.91,0
24.9100,31.27,0
24.9150,31.27,0
24.9200,33.70,0
24.9250,33.70,0
24.9300,33.70,0
24.9350,33.34,0
24.9400,33.34,0
24.9450,33.34,0
24.9500,-12.57,0
24.9550,35.64,0
24.9600,-73.14,0
24.9650,-73.14,0
24.9700,-1.67,0
24.9750,-1.67,0
24.9800,6.91,0
24.9850,-1.67,0
24.9900,36.72,0
24.9950,51.89,0
25.0000,51.89,0
25.0050,47.85,0
25.0100,47.85,0
25.0150,48.52,0
25.0200,48.52,0
25.0250,48.52,0
25.0300,48.52,0
25.0350,48.52,0
25.0400,37.40,0
25.0450,-0.08,0
25.0500,40.49,0
25.0550,40.49,0
25.0600,34.76,0
25.0650,38.79,0
25.0700,34.76,0
25.0750,34.76,0
25.0800,34.76,0
25.0850,30.25,0
25.0900,30.25,0
25.0950,30.25,0
25.1000,30.25,0
25.1050,11.24,0
25.1100,11.24,0
25.1150,4.43,0
25.1200,4.43,0
25.1250,4.43,0
25.1300,4.43,0
25.1350,0.23,0
25.1400,0.23,0
25.1450,7.96,0
25.1500,7.96,0
25.1550,37.37,0
25.1600,4.81,0
25.1650,25.32,0
25.1700,25.32,0
25.1750,25.32,0
25.1800,25.32,0
25.1850,25.32,0
25.1900,16.75,0
25.1950,16.75,0
25.2000,16.75,0
25.2050,6.87,0
25.2100,-5.87,0
25.2150,28.98,0
25.2200,-5.87,0
25.2250,-5.87,0
25.2300,-5.87,0
25.2350,-5.87,0
25.2400,25.32,0
25.2450,-39.70,0
25.2500,-3.18,0
25.2550,24.92,0
25.2600,46.21,0
25.2650,46.21,0
25.2700,46.21,0
25.2750,46.21,0
25.2800,46.21,0
25.2850,46.21,0
25.2900,46.21,0
25.2950,46.21,0
25.3000,6.65,0
25.3050,1.98,0
25.3100,1.98,0
25.3150,1.98,0
25.3200,-214.36,0
25.3250,-160.77,0
25.3300,-8.21,0
25.3350,19.59,0
25.3400,-51.87,0
25.3450,81.78,0
25.3500,81.78,1
25.3550,81.78,0
25.3600,10.58,0
25.3650,208.04,0
25.3700,56.09,0
25.3750,56.09,0
25.3800,56.09,0
25.3850,56.09,0
25.3900,54.72,0
25.3950,38.04,0
25.4000,38.04,0
25.4050,25.86,0
25.4100,25.86,0
25.4150,25.86,0
25.4200,25.86,0
25.4250,25.86,0
25.4300,21.55,0
25.4350,21.55,0
25.4400,40.37,0
25.4450,40.37,0
25.4500,14.59,0
25.4550,14.59,0
25.4600,23.92,0
25.4650,13.12,0
25.4700,13.12,0
25.4750,13.12,0
25.4800,14.59,0
25.4850,13.12,0
25.4900,4.43,0
25.4950,15.69,0
25.5000,-13.03,0
25.5050,-13.03,0
25.5100,-13.03,0
25.5150,-13.03,0
25.5200,-3.38,0
25.5250,-3.38,0
25.5300,-18.47,0
25.5350,-18.47,0
25.5400,-18.47,0
25.5450,-18.47,0
25.5500,-9.17,0
25.5550,-9.17,0
25.5600,41.94,0
25.5650,41.94,0
25.5700,43.36,0
25.5750,28.75,0
25.5800,28.75,0
25.5850,16.88,0
25.5900,16.88,0
25.5950,16.88,0
25.6000,16.88,0
25.6050,16.88,0
25.6100,16.88,0
25.6150,30.69,0
25.6200,-25.86,0
25.6250,32.63,0
25.6300,32.63,0
25.6350,32.63,0
25.6400,32.63,0
25.6450,32.63,0
25.6500,32.63,0
25.6550,32.63,0
25.6600,37.70,0
25.6650,44.77,0
25.6700,44.77,0
25.6750,44.77,0
25.6800,44.77,0
25.6850,44.77,0
25.6900,17.85,0
25.6950,6.90,0
25.7000,6.90,0
25.7050,6.90,0
25.7100,6.90,0
25.7150,-13.82,0
25.7200,-4.85,0
25.7250,-4.85,0
25.7300,25.99,0
25.7350,16.76,0
25.7400,-11.55,0
25.7450,13.54,0
25.7500,-34.39,0
25.7550,-34.39,0
25.7600,-62.97,0
25.7650,-54.15,0
25.7700,-62.97,0
25.7750,-62.97,0
25.7800,-62.97,0
25.7850,-62.97,0
25.7900,-162.15,0
25.7950,-92.99,0
25.8000,-92.99,0
25.8050,-191.49,0
25.8100,-191.49,0
25.8150,-191.49,0
25.8200,-191.49,0
25.8250,-191.49,0
25.8300,-191.49,0
25.8350,-191.49,0
25.8400,-391.44,0
25.8450,-391.44,0
25.8500,-179.09,0
25.8550,-179.09,0
25.8600,-161.19,0
25.8650,-161.19,0
25.8700,-161.19,0
25.8750,-161.19,0
25.8800,-55.31,0
25.8850,-55.31,0
25.8900,-115.64,0
25.8950,-115.64,0
25.9000,38.12,0
25.9050,38.12,0
25.9100,-61.49,0
25.9150,-61.49,0
25.9200,-61.49,0
25.9250,-1.09,0
25.9300,15.19,0
25.9350,-46.28,0
25.9400,-70.91,0
25.9450,-70.91,0
25.9500,-510.16,0
25.9550,-510.16,0
25.9600,-1077.97,0
25.9650,-904.30,0
25.9700,-904.30,0
25.9750,-904.30,0
25.9800,15.19,0
25.9850,-1083.18,0
25.9900,-1838.61,0
25.9950,-1838.61,0
26.0000,-1838.61,0
26.0050,-1838.61,0
26.0100,-1838.61,0
26.0150,-1838.61,0
26.0200,-1838.61,0
26.0250,-277.51,0
26.0300,-2953.62,0
26.0350,-2953.62,0
26.0400,-4687.25,0
26.0450,-119.47,0
26.0500,-4606.55,0
26.0550,-4606.55,0
26.0600,-4335.45,0
26.0650,-4335.45,0
26.0700,-5621.60,0
26.0750,-5621.60,0
26.0800,-5607.53,0
26.0850,-5607.53,0
26.0900,-39.55,0
26.0950,-5607.53,0
26.1000,-5607.53,0
26.1050,-5607.53,0
26.1100,-5075.30,0
26.1150,-5075.30,0
26.1200,-94.15,0
26.1250,-94.15,0
26.1300,-94.15,0
26.1350,-94.15,0
26.1400,-94.15,0
26.1450,611.76,0
26.1500,611.76,0
26.1550,420.82,0
26.1600,420.82,0
26.1650,210.88,0
26.1700,210.88,0
26.1750,-55.50,0
26.1800,-55.50,0
26.1850,37.42,0
26.1900,37.42,0
26.1950,37.42,0
26.2000,37.42,0
26.2050,37.42,0
26.2100,38.28,0
26.2150,38.28,0
26.2200,-94.46,0
26.2250,-4681.92,0
26.2300,-206.70,0
26.2350,-206.70,0
26.2400,29.42,0
26.2450,29.42,0
26.2500,234.57,0
26.2550,262.11,0
26.2600,262.11,0
26.2650,262.11,0
26.2700,242.06,0
26.2750,242.06,0
26.2800,78.74,0
26.2850,-301.46,0
26.2900,-301.46,0
26.2950,-301.46,0
26.3000,144.75,0
26.3050,144.75,0
26.3100,-94.46,0
26.3150,69.91,0
26.3200,69.91,0
26.3250,69.91,0
26.3300,611.83,0
26.3350,198.61,0
26.3400,159.66,0
26.3450,244.35,0
26.3500,244.35,0
26.3550,194.85,0
26.3600,194.85,0
26.3650,168.17,0
26.3700,168.17,0
26.3750,168.17,0
26.3800,306.09,0
26.3850,487.28,0
26.3900,487.28,0
26.3950,487.28,0
26.4000,400.08,0
26.4050,400.08,0
26.4100,340.21,0
26.4150,89.72,0
26.4200,89.72,0
26.4250,89.72,0
26.4300,86.26,0
26.4350,98.21,0
26.4400,98.21,0
26.4450,98.09,0
26.4500,98.09,0
26.4550,72.25,0
26.4600,72.25,0
26.4650,27.10,0
26.4700,27.10,0
26.4750,-94.11,0
26.4800,104.66,0
26.4850,-94.11,0
26.4900,-94.11,0
26.4950,136.32,0
26.5000,136.32,0
26.5050,248.05,0
26.5100,169.44,0
26.5150,-96.35,0
26.5200,-96.35,0
26.5250,12.51,0
26.5300,489.86,0
26.5350,489.86,0
26.5400,489.86,0
26.5450,489.86,0
26.5500,489.86,0
26.5550,489.86,0
26.5600,1840.25,0
26.5650,1840.25,0
26.5700,2008.52,0
26.5750,2008.52,0
26.5800,2001.71,0
26.5850,2001.71,0
26.5900,2001.71,0
26.5950,2001.71,0
26.6000,2001.71,0
26.6050,2116.35,0
26.6100,102.01,0
26.6150,2116.35,0
26.6200,3041.29,0
26.6250,3041.29,0
26.6300,3635.91,0
26.6350,3064.82,0
26.6400,3064.82,0
26.6450,3064.82,0
26.6500,1943.57,0
26.6550,102.02,0
26.6600,3219.00,0
26.6650,3219.00,0
26.6700,4583.88,0
26.6750,4583.88,0
26.6800,4583.88,0
26.6850,4583.88,0
26.6900,4624.81,0
26.6950,4624.81,0
26.7000,4664.29,0
26.7050,4664.29,0
26.7100,2116.34,0
26.7150,5312.80,0
26.7200,5312.80,0
26.7250,5312.80,0
26.7300,5312.80,0
26.7350,5067.79,0
26.7400,5067.79,0
26.7450,4181.10,0
26.7500,4181.10,0
26.7550,3774.07,0
26.7600,3774.07,0
26.7650,3218.77,0
26.7700,4294.95,0
26.7750,4437.00,0
26.7800,4413.02,0
26.7850,4060.63,0
26.7900,4726.13,0
26.7950,4097.82,0
26.8000,2630.77,0
26.8050,4097.82,0
26.8100,4097.82,0
26.8150,4051.81,0
26.8200,4051.81,0
26.8250,4167.63,0
26.8300,4167.63,0
26.8350,4253.91,0
26.8400,4253.91,0
26.8450,4213.76,0
26.8500,4213.76,0
26.8550,4065.43,0
26.8600,4065.43,0
26.8650,4054.10,0
26.8700,4054.10,0
26.8750,4043.11,0
26.8800,4043.11,0
26.8850,3788.56,0
26.8900,3788.56,0
26.8950,3788.56,0
26.9000,3788.56,0
26.9050,3788.56,0
26.9100,3678.19,0
26.9150,3678.19,0
26.9200,65.88,0
26.9250,65.88,0
26.9300,65.88,0
26.9350,65.88,0
26.9400,74.25,0
26.9450,4199.43,0
26.9500,4065.41,0
26.9550,137.87,0
26.9600,97.60,0
26.9650,97.60,0
26.9700,97.60,0
26.9750,85.60,0
26.9800,85.60,0
26.9850,85.60,0
26.9900,93.17,0
26.9950,93.17,0
27.0000,93.17,0
27.0050,93.17,0
27.0100,66.91,0
27.0150,66.91,0
27.0200,44.44,0
27.0250,44.44,0
27.0300,-35.08,0
27.0350,4023.39,0
27.0400,-35.08,0
27.0450,48.41,0
27.0500,-25.83,0
27.0550,3427.86,0
27.0600,-28.45,0
27.0650,-28.45,0
27.0700,28.24,0
27.0750,28.24,0
27.0800,28.24,0
27.0850,28.24,0
27.0900,28.24,0
27.0950,28.24,0
27.1000,18.70,0
27.1050,18.70,0
27.1100,66.00,0
27.1150,66.00,0
27.1200,63.25,0
27.1250,91.23,0
27.1300,41.63,0
27.1350,41.63,0
27.1400,41.63,0
27.1450,41.63,0
27.1500,-36.48,0
27.1550,-36.48,0
27.1600,-142.31,0
27.1650,-88.98,0
27.1700,-88.98,0
27.1750,-88.98,0
27.1800,-88.98,0
27.1850,-88.98,0
27.1900,-88.98,0
27.1950,-88.98,0
27.2000,47.66,0
27.2050,-65.19,0
27.2100,-65.19,0
27.2150,63.96,0
27.2200,63.96,0
27.2250,-15.71,0
27.2300,-75.40,0
27.2350,-75.40,0
27.2400,-75.40,0
27.2450,-75.40,0
27.2500,85.62,0
27.2550,422.22,0
27.2600,64.55,0
27.2650,65.57,0
27.2700,277.32,0
27.2750,-28.83,0
27.2800,0.48,0
27.2850,-28.83,0
27.2900,-187.13,0
27.2950,-187.13,0
27.3000,345.20,0
27.3050,345.20,0
27.3100,-284.00,0
27.3150,-266.94,0
27.3200,-266.94,0
27.3250,-28.83,0
27.3300,-211.37,0
27.3350,-211.37,0
27.3400,-211.37,0
27.3450,-177.81,0
27.3500,-177.81,0
27.3550,-169.72,0
27.3600,-169.72,0
27.3650,-164.11,0
27.3700,-164.11,0
27.3750,-160.32,0
27.3800,-160.32,0
27.3850,-158.93,0
27.3900,-158.93,0
27.3950,345.20,0
27.4000,-128.53,0
27.4050,-108.47,0
27.4100,-108.47,0
27.4150,-119.15,0
27.4200,-119.15,0
27.4250,-127.01,0
27.4300,-114.90,0
27.4350,-114.90,0
27.4400,-83.23,0
27.4450,-83.23,0
27.4500,-94.64,0
27.4550,-94.64,0
27.4600,-80.52,0
27.4650,-80.52,0
27.4700,-152.94,0
27.4750,-109.42,0
27.4800,-116.36,0
27.4850,-83.23,0
27.4900,-116.36,0
27.4950,-116.36,0
27.5000,-125.55,0
27.5050,-125.55,0
27.5100,-68.47,0
27.5150,-68.47,0
27.5200,-119.64,0
27.5250,-119.64,0
27.5300,-184.91,0
27.5350,-131.30,0
27.5400,-108.71,0
27.5450,-108.71,0
27.5500,-64.37,0
27.5550,-88.28,0
27.5600,-68.39,0
27.5650,-68.39,0
27.5700,-84.45,0
27.5750,-84.45,0
27.5800,-84.45,0
27.5850,-84.45,0
27.5900,-111.61,0
27.5950,-111.61,0
27.6000,-82.88,0
27.6050,-82.88,0
27.6100,-62.97,0
27.6150,-62.97,0
27.6200,-26.42,0
27.6250,-26.42,0
27.6300,-46.97,0
27.6350,-148.86,0
27.6400,-46.97,0
27.6450,-46.97,0
27.6500,-51.71,0
27.6550,-51.71,0
27.6600,5.07,0
27.6650,5.07,0
27.6700,-24.51,0
27.6750,-24.51,0
27.6800,8.43,0
27.6850,8.43,0
27.6900,-9.10,0
27.6950,-9.10,0
27.7000,-9.10,0
27.7050,-13.27,0
27.7100,-13.27,0
27.7150,16.36,0
27.7200,16.36,0
27.7250,14.06,0
27.7300,14.06,0
27.7350,5.42,0
27.7400,-8.13,0
27.7450,5.42,0
27.7500,5.42,0
27.7550,1.32,0
27.7600,1.32,0
27.7650,1.32,0
27.7700,-13.27,0
27.7750,12.44,0
27.7800,12.44,0
27.7850,6.28,0
27.7900,6.28,0
27.7950,6.28,0
27.8000,-4.29,0
27.8050,6.28,0
27.8100,6.28,0
27.8150,-7.22,0
27.8200,-7.22,0
27.8250,1.72,0
27.8300,1.72,0
27.8350,-72.19,0
27.8400,11.90,0
27.8450,-12.40,0
27.8500,-12.40,0
27.8550,-12.40,0
27.8600,-12.40,0
27.8650,0.68,0
27.8700,-6.61,0
27.8750,49.83,0
27.8800,49.83,0
27.8850,38.82,0
27.8900,38.82,0
27.8950,-15.08,0
27.9000,-15.08,0
27.9050,27.35,0
27.9100,27.35,0
27.9150,32.16,0
27.9200,32.16,0
27.9250,60.79,0
27.9300,60.79,0
27.9350,131.00,0
27.9400,131.00,0
27.9450,60.62,0
27.9500,-26.18,0
27.9550,-44.22,0
27.9600,-44.22,0
27.9650,-21.37,0
27.9700,-21.37,0
27.9750,-21.37,0
27.9800,-21.37,0
27.9850,-20.90,0
27.9900,-20.90,0
27.9950,-3.10,0
28.0000,-14.31,0
28.0050,-1.53,0
28.0100,-1.53,0
28.0150,-20.93,0
28.0200,-20.93,0
28.0250,-20.93,0
28.0300,-20.93,0
28.0350,-4.60,0
28.0400,-4.60,0
28.0450,-21.18,0
28.0500,-21.18,0
28.0550,-25.27,0
28.0600,-25.27,0
28.0650,-8.09,0
28.0700,-8.09,0
28.0750,-8.09,0
28.0800,-8.09,0
28.0850,-15.55,0
28.0900,-8.88,0
28.0950,11.52,0
28.1000,3.68,0
28.1050,3.68,0
28.1100,3.68,0
28.1150,3.68,0
28.1200,3.68,0
28.1250,-4.60,0
28.1300,-16.55,0
28.1350,18.00,0
28.1400,-12.88,0
28.1450,-12.88,0
28.1500,3.94,0
28.1550,3.94,0
28.1600,-6.16,0
28.1650,-6.16,0
28.1700,20.45,0
28.1750,-7.83,0
28.1800,-8.88,0
28.1850,7.87,0
28.1900,7.87,0
28.1950,7.87,0
28.2000,-11.36,0
28.2050,-11.36,0
28.2100,-0.11,0
28.2150,20.81,0
28.2200,-1.01,0
28.2250,15.49,0
28.2300,7.62,0
28.2350,7.62,0
28.2400,7.62,0
28.2450,-0.02,0
28.2500,7.62,0
28.2550,7.62,0
28.2600,-11.89,0
28.2650,-11.89,0
28.2700,-11.89,0
28.2750,4.90,0
28.2800,4.90,0
28.2850,-10.98,0
28.2900,20.79,0
28.2950,20.79,0
28.3000,-3.74,0
28.3050,-3.74,0
28.3100,-3.74,0
28.3150,21.54,0
28.3200,21.54,0
28.3250,-0.65,0
28.3300,-0.65,0
28.3350,24.59,0
28.3400,24.59,0
28.3450,24.59,0
28.3500,24.59,0
28.3550,24.59,0
28.3600,24.59,0
28.3650,-0.01,0
28.3700,24.74,0
28.3750,24.74,0
28.3800,-6.84,0
28.3850,-6.84,0
28.3900,-6.84,0
28.3950,9.77,0
28.4000,-9.94,0
28.4050,-1.82,0
28.4100,-1.82,0
28.4150,-1.82,0
28.4200,-1.82,0
28.4250,-10.91,0
28.4300,16.27,0
28.4350,16.27,0
28.4400,9.77,0
28.4450,5.92,0
28.4500,5.92,0
28.4550,-4.94,0
28.4600,18.69,0
28.4650,-6.69,0
28.4700,18.69,0
28.4750,18.69,0
28.4800,10.63,0
28.4850,10.63,0
28.4900,10.63,0
28.4950,19.80,0
28.5000,-11.56,0
28.5050,-11.56,0
28.5100,-11.56,0
28.5150,-11.56,0
28.5200,-11.56,0
28.5250,-11.56,0
28.5300,-11.56,0
28.5350,-11.56,0
28.5400,8.37,0
28.5450,10.63,0
28.5500,-6.23,0
28.5550,-6.23,0
28.5600,8.37,0
28.5650,22.84,0
28.5700,22.84,0
28.5750,22.84,0
28.5800,17.01,0
28.5850,2.38,0
28.5900,2.38,0
28.5950,23.72,0
28.6000,-6.13,0
28.6050,21.40,0
28.6100,21.40,0
28.6150,-4.18,0
28.6200,7.88,0
28.6250,-4.18,0
28.6300,-3.70,0
28.6350,17.02,0
28.6400,-8.76,0
28.6450,-8.76,0
28.6500,-8.76,0
28.6550,-3.67,0
28.6600,5.35,0
28.6650,5.35,0
28.6700,5.35,0
28.6750,15.65,0
28.6800,15.65,0
28.6850,25.05,0
28.6900,25.65,0
28.6950,25.65,0
28.7000,-1.81,0
28.7050,-1.81,0
28.7100,-10.62,0
28.7150,-10.62,0
28.7200,24.66,0
28.7250,24.66,0
28.7300,24.66,0
28.7350,0.17,0
28.7400,0.17,0
28.7450,0.17,0
28.7500,19.36,0
28.7550,19.36,0
28.7600,-14.00,0
28.7650,-14.00,0
28.7700,-6.73,0
28.7750,-6.73,0
28.7800,9.62,0
28.7850,5.36,0
28.7900,9.62,0
28.7950,9.62,0
28.8000,-9.44,0
28.8050,-9.44,0
28.8100,27.22,0
28.8150,27.22,0
28.8200,11.97,0
28.8250,1.11,0
28.8300,15.71,0
28.8350,1.11,0
28.8400,25.38,0
28.8450,19.49,0
28.8500,-6.05,0
28.8550,-6.05,0
28.8600,-6.05,0
28.8650,-10.55,0
28.8700,-6.05,0
28.8750,16.02,0
28.8800,16.02,0
28.8850,-13.68,0
28.8900,-13.68,0
28.8950,-8.92,0
28.9000,-8.92,0
28.9050,1.13,0
28.9100,1.13,0
28.9150,1.13,0
28.9200,1.13,0
28.9250,-23.05,0
28.9300,14.62,0
28.9350,14.62,0
28.9400,14.62,0
28.9450,2.53,0
28.9500,2.53,0
28.9550,15.94,0
28.9600,15.94,0
28.9650,-18.03,0
28.9700,-18.03,0
28.9750,-18.03,0
28.9800,-1.96,0
28.9850,-1.96,0
28.9900,18.46,0
28.9950,18.46,0
29.0000,-11.52,0
29.0050,-11.52,0
29.0100,22.66,0
29.0150,22.66,0
29.0200,-1.77,0
29.0250,-1.77,0
29.0300,1.09,0
29.0350,1.09,0
29.0400,-5.33,0
29.0450,-5.33,0
29.0500,33.96,0
29.0550,-1.96,0
29.0600,6.42,0
29.0650,6.42,0
29.0700,21.48,0
29.0750,21.48,0
29.0800,21.48,0
29.0850,21.48,0
29.0900,25.68,0
29.0950,25.68,0
29.1000,1.41,0
29.1050,1.41,0
29.1100,21.03,0
29.1150,21.03,0
29.1200,-2.64,0
29.1250,-2.64,0
29.1300,-2.64,0
29.1350,-2.17,0
29.1400,-1.50,0
29.1450,-1.50,0
29.1500,-1.50,0
29.1550,-1.50,0
29.1600,-17.91,0
29.1650,-17.91,0
29.1700,21.58,0
29.1750,21.58,0
29.1800,-1.67,0
29.1850,-1.67,0
29.1900,3.36,0
29.1950,3.36,0
29.2000,28.36,0
29.2050,18.25,0
29.2100,10.16,0
29.2150,10.16,0
29.2200,-6.69,0
29.2250,-6.69,0
29.2300,-10.46,0
29.2350,-7.71,0
29.2400,-28.74,0
29.2450,-28.74,0
29.2500,-28.74,0
29.2550,-28.74,0
29.2600,-10.80,0
29.2650,-10.80,0
29.2700,-11.14,0
29.2750,-11.14,0
29.2800,2.37,0
29.2850,2.37,0
29.2900,-26.90,0
29.2950,-26.90,0
29.3000,-35.75,0
29.3050,-35.75,0
29.3100,-13.69,0
29.3150,-11.79,0
29.3200,7.84,0
29.3250,7.84,0
29.3300,-26.90,0
29.3350,7.84,0
29.3400,16.65,0
29.3450,16.65,0
29.3500,-574.97,0
29.3550,-28.74,0
29.3600,-574.97,0
29.3650,-574.97,0
29.3700,452.97,0
29.3750,452.97,0
29.3800,-124.08,0
29.3850,-124.08,0
29.3900,-38.00,0
29.3950,-38.00,0
29.4000,-117.01,0
29.4050,-117.01,0
29.4100,-23.23,0
29.4150,-416.38,0
29.4200,-789.11,0
29.4250,-789.11,0
29.4300,-1177.45,0
29.4350,-1177.45,0
29.4400,-1129.75,0
29.4450,-1129.75,0
29.4500,-1417.31,0
29.4550,-1417.31,0
29.4600,353.16,0
29.4650,-1069.86,0
29.4700,-1130.53,0
29.4750,-1130.53,0
29.4800,-1130.53,0
29.4850,-1130.53,0
29.4900,-1442.99,0
29.4950,-1442.99,0
29.5000,-1312.70,0
29.5050,-1133.96,0
29.5100,-1312.70,0
29.5150,-1133.27,0
29.5200,-1133.27,0
29.5250,-789.11,0
29.5300,-1059.56,0
29.5350,-1059.56,0
29.5400,-1059.56,0
29.5450,-329.34,0
29.5500,-329.34,0
29.5550,-145.44,0
29.5600,-86.37,0
29.5650,-86.37,0
29.5700,-86.37,0
29.5750,485.46,0
29.5800,-1147.08,0
29.5850,668.55,0
29.5900,668.55,0
29.5950,834.65,0
29.6000,834.65,0
29.6050,849.43,0
29.6100,849.43,0
29.6150,810.86,0
29.6200,408.99,0
29.6250,408.99,0
29.6300,782.38,0
29.6350,782.38,0
29.6400,782.38,0
29.6450,1062.30,0
29.6500,1062.30,0
29.6550,1062.30,0
29.6600,1062.30,0
29.6650,1840.31,0
29.6700,1840.31,0
29.6750,2134.74,0
29.6800,2134.74,0
29.6850,2044.00,0
29.6900,2044.00,0
29.6950,2585.53,0
29.7000,1062.30,0
29.7050,2585.53,0
29.7100,2585.53,0
29.7150,3122.58,0
29.7200,2978.39,0
29.7250,3122.58,0
29.7300,2978.39,0
29.7350,2978.39,0
29.7400,2978.39,0
29.7450,2978.39,0
29.7500,2978.39,0
29.7550,2978.39,0
29.7600,3985.22,0
29.7650,3985.22,0
29.7700,5751.96,0
29.7750,5751.96,0
29.7800,5751.96,0
29.7850,6093.29,0
29.7900,1897.35,0
29.7950,6076.42,0
29.8000,6076.42,0
29.8050,6591.02,0
29.8100,3601.24,0
29.8150,7603.10,0
29.8200,7603.10,0
29.8250,7603.10,0
29.8300,7603.10,0
29.8350,7603.10,0
29.8400,7603.10,0
29.8450,7904.85,0
29.8500,7823.30,0
29.8550,7823.30,0
29.8600,7823.30,0
29.8650,3985.18,0
29.8700,3386.07,0
29.8750,7804.95,0
29.8800,7539.66,0
29.8850,7539.66,0
29.8900,7640.30,0
29.8950,7640.30,0
29.9000,7425.01,0
29.9050,7425.01,0
29.9100,7597.05,0
29.9150,7597.05,0
29.9200,7597.05,0
29.9250,7597.05,0
29.9300,7597.05,0
29.9350,7597.05,0
29.9400,8900.55,0
29.9450,8900.55,0
29.9500,8900.55,0
29.9550,8972.97,0
29.9600,8818.06,0
29.9650,8723.52,0
29.9700,8723.52,0
29.9750,8723.52,0
29.9800,8723.52,0
29.9850,7586.47,0
29.9900,8723.52,0
29.9950,9889.54,0
30.0000,9889.54,0
30.0050,10269.63,0
30.0100,8900.55,0
30.0150,9926.68,0
30.0200,7534.94,0
30.0250,9163.23,0
30.0300,9163.23,0
30.0350,9163.96,0
30.0400,9163.96,0
30.0450,9246.42,0
30.0500,9163.96,0
30.0550,9353.22,0
30.0600,9353.22,0
30.0650,9427.92,0
30.0700,9427.92,0
30.0750,9205.57,0
30.0800,9205.57,0
30.0850,9205.57,0
30.0900,9213.17,0
30.0950,9282.82,0
30.1000,8941.41,0
30.1050,10269.45,0
30.1100,9122.66,0
30.1150,9353.22,0
30.1200,9329.01,0
30.1250,8409.04,0
30.1300,8433.40,0
30.1350,8433.40,0
30.1400,8433.40,0
30.1450,8433.40,0
30.1500,7894.69,0
30.1550,7894.69,0
30.1600,7604.09,0
30.1650,7604.09,0
30.1700,7433.90,0
30.1750,7433.90,0
30.1800,6633.56,0
30.1850,7433.90,0
30.1900,6633.56,0
30.1950,6633.56,0
30.2000,-1553.84,0
30.2050,-1553.84,0
30.2100,-1524.63,0
30.2150,-1524.63,0
30.2200,-1579.02,0
30.2250,-1579.02,0
30.2300,9076.99,0
30.2350,-1579.02,0
30.2400,-1518.91,0
30.2450,-1518.91,0
30.2500,-1177.74,0
30.2550,-1177.74,0
30.2600,-1370.65,0
30.2650,7094.41,0
30.2700,-1141.55,0
30.2750,-1141.55,0
30.2800,-1312.77,0
30.2850,-1312.77,0
30.2900,-1312.77,0
30.2950,-1093.30,0
30.3000,-1093.30,0
30.3050,-1110.93,0
30.3100,-1110.93,0
30.3150,-872.00,0
30.3200,-872.00,0
30.3250,-872.00,0
30.3300,-872.00,0
30.3350,-872.00,0
30.3400,-872.00,0
30.3450,-1121.78,0
30.3500,-1121.78,1
30.3550,-924.08,0
30.3600,-924.08,0
30.3650,-1228.75,0
30.3700,-1228.75,0
30.3750,-1228.75,0
30.3800,-1228.75,0
30.3850,-866.35,0
30.3900,-914.17,0
30.3950,-953.45,0
30.4000,-953.45,0
30.4050,-921.56,0
30.4100,-921.56,0
30.4150,-997.58,0
30.4200,-1136.76,0
30.4250,-1017.82,0
30.4300,-1017.82,0
30.4350,-1158.81,0
30.4400,-1158.81,0
30.4450,-999.94,0
30.4500,-999.94,0
30.4550,-963.05,0
30.4600,-1092.71,0
30.4650,-1092.71,0
30.4700,-1319.92,0
30.4750,-1053.55,0
30.4800,-1434.65,0
30.4850,-1434.65,0
30.4900,-1614.28,0
30.4950,-1614.28,0
30.5000,-1614.28,0
30.5050,-1614.28,0
30.5100,-1853.64,0
30.5150,-1121.22,0
30.5200,-1080.22,0
30.5250,-1080.22,0
30.5300,-1203.67,0
30.5350,-1203.67,0
30.5400,-1203.67,0
30.5450,-1203.67,0
30.5500,-410.63,0
30.5550,-410.63,0
30.5600,-250.88,0
30.5650,-250.88,0
30.5700,384.24,0
30.5750,384.24,0
30.5800,165.23,0
30.5850,-1023.32,0
30.5900,768.93,0
30.5950,305.70,0
30.6000,992.34,0
30.6050,992.34,0
30.6100,1179.73,0
30.6150,1179.73,0
30.6200,2193.97,0
30.6250,2193.97,0
30.6300,-1089.86,0
30.6350,2193.97,0
30.6400,2193.97,0
30.6450,1804.72,0
30.6500,-1391.35,0
30.6550,2408.28,0
30.6600,2408.28,0
30.6650,2408.28,0
30.6700,-410.68,0
30.6750,2733.55,0
30.6800,1804.72,0
30.6850,2825.47,0
30.6900,2825.47,0
30.6950,2429.63,0
30.7000,2256.13,0
30.7050,2256.13,0
30.7100,2010.05,0
30.7150,2256.13,0
30.7200,2646.07,0
30.7250,2646.07,0
30.7300,2825.20,0
30.7350,2802.82,0
30.7400,2146.88,0
30.7450,2146.88,0
30.7500,1937.81,0
30.7550,1937.81,0
30.7600,1937.81,0
30.7650,1937.81,0
30.7700,1976.26,0
30.7750,2146.88,0
30.7800,1436.26,0
30.7850,1436.26,0
30.7900,1709.21,0
30.7950,1557.35,0
30.8000,1232.72,0
30.8050,1232.72,0
30.8100,1250.55,0
30.8150,2256.22,0
30.8200,1441.52,0
30.8250,1441.52,0
30.8300,1479.55,0
30.8350,1479.55,0
30.8400,1409.70,0
30.8450,1409.70,0
30.8500,1365.31,0
30.8550,2978.65,0
30.8600,1434.28,0
30.8650,1434.28,0
30.8700,1329.49,0
30.8750,1543.19,0
30.8800,1312.48,0
30.8850,2134.16,0
30.8900,1543.19,0
30.8950,1568.97,0
30.9000,1568.97,0
30.9050,1576.38,0
30.9100,1576.38,0
30.9150,1345.29,0
30.9200,1345.29,0
30.9250,1683.54,0
30.9300,1683.54,0
30.9350,1582.37,0
30.9400,1582.37,0
30.9450,1815.23,0
30.9500,1879.59,0
30.9550,1879.59,0
30.9600,1879.59,0
30.9650,1877.75,0
30.9700,1923.05,0
30.9750,1923.05,0
30.9800,1923.05,0
30.9850,2020.78,0
30.9900,2020.78,0
30.9950,31.10,0
31.0000,2020.78,0
31.0050,1605.77,0
31.0100,31.10,0
31.0150,31.10,0
31.0200,31.10,0
31.0250,176.87,0
31.0300,176.87,0
31.0350,221.80,0
31.0400,221.80,0
31.0450,351.72,0
31.0500,351.72,0
31.0550,174.08,0
31.0600,174.08,0
31.0650,174.08,0
31.0700,174.08,0
31.0750,214.92,0
31.0800,214.92,0
31.0850,205.57,0
31.0900,205.57,0
31.0950,226.89,0
31.1000,226.89,0
31.1050,103.00,0
31.1100,103.00,0
31.1150,126.85,0
31.1200,126.85,0
31.1250,126.85,0
31.1300,126.85,0
31.1350,156.27,0
31.1400,156.27,0
31.1450,203.45,0
31.1500,203.45,0
31.1550,205.57,0
31.1600,352.23,0
31.1650,530.77,0
31.1700,530.77,0
31.1750,237.11,0
31.1800,237.11,0
31.1850,237.11,0
31.1900,140.10,0
31.1950,779.51,0
31.2000,779.51,0
31.2050,652.03,0
31.2100,652.03,0
31.2150,558.60,0
31.2200,451.59,0
31.2250,-251.30,0
31.2300,-251.30,0
31.2350,-251.30,0
31.2400,166.11,0
31.2450,166.11,0
31.2500,476.27,0
31.2550,476.27,0
31.2600,722.07,0
31.2650,26.56,0
31.2700,26.56,0
31.2750,-248.77,0
31.2800,-248.77,0
31.2850,-248.77,0
31.2900,-248.77,0
31.2950,-520.13,0
31.3000,-520.13,0
31.3050,-427.44,0
31.3100,-427.44,0
31.3150,-762.27,0
31.3200,-762.27,0
31.3250,-762.27,0
31.3300,-762.27,0
31.3350,-718.76,0
31.3400,-718.76,0
31.3450,-1191.25,0
31.3500,-1191.25,0
31.3550,-1191.25,0
31.3600,-1191.25,0
31.3650,-1675.32,0
31.3700,-1675.32,0
31.3750,-1675.32,0
31.3800,-1920.72,0
31.3850,-1920.72,0
31.3900,-2355.85,0
31.3950,-543.88,0
31.4000,-1991.14,0
31.4050,-1812.70,0
31.4100,-1991.14,0
31.4150,-2027.69,0
31.4200,-2027.69,0
31.4250,-2027.69,0
31.4300,-2309.30,0
31.4350,-2309.30,0
31.4400,-2112.95,0
31.4450,-2112.95,0
31.4500,-2490.49,0
31.4550,-2490.49,0
31.4600,-2490.49,0
31.4650,-2490.49,0
31.4700,-2490.49,0
31.4750,-2249.30,0
31.4800,-2249.30,0
31.4850,-1942.77,0
31.4900,-1942.77,0
31.4950,-1942.77,0
31.5000,-1942.77,0
31.5050,-384.51,0
31.5100,-1942.77,0
31.5150,-1826.90,0
31.5200,-1388.08,0
31.5250,-2011.01,0
31.5300,-2011.01,0
31.5350,-2081.72,0
31.5400,-2081.72,0
31.5450,-2500.16,0
31.5500,-2500.16,0
31.5550,-2500.16,0
31.5600,-1438.37,0
31.5650,-2872.80,0
31.5700,-2872.80,0
31.5750,-2755.31,0
31.5800,-2755.31,0
31.5850,-2700.70,0
31.5900,-2700.70,0
31.5950,-2700.70,0
31.6000,-2700.70,0
31.6050,-3209.90,0
31.6100,-2888.77,0
31.6150,-2888.77,0
31.6200,-2081.74,0
31.6250,-2954.08,0
31.6300,-2954.08,0
31.6350,-2046.58,0
31.6400,-2046.58,0
31.6450,-1759.62,0
31.6500,-1759.62,0
31.6550,-1759.62,0
31.6600,-2085.46,0
31.6650,-2085.46,0
31.6700,-2085.46,0
31.6750,-1979.92,0
31.6800,-2768.46,0
31.6850,-2768.46,0
31.6900,-2470.40,0
31.6950,-2768.46,0
31.7000,-2470.40,0
31.7050,-2257.45,0
31.7100,-2257.45,0
31.7150,-2313.41,0
31.7200,-2313.41,0
31.7250,-2169.39,0
31.7300,-2169.39,0
31.7350,-2169.39,0
31.7400,-2954.02,0
31.7450,-2470.40,0
31.7500,-1762.10,0
31.7550,-2247.29,0
31.7600,-2887.12,0
31.7650,-2528.65,0
31.7700,-2528.65,0
31.7750,-2528.65,0
31.7800,-2143.35,0
31.7850,-2143.35,0
31.7900,-2143.35,0
31.7950,-2399.34,0
31.8000,-2395.56,0
31.8050,-2395.56,0
31.8100,-2735.53,0
31.8150,192.62,0
31.8200,192.62,0
31.8250,192.62,0
31.8300,-676.26,0
31.8350,61.93,0
31.8400,61.93,0
31.8450,-909.96,0
31.8500,-909.96,0
31.8550,-119.93,0
31.8600,-119.93,0
31.8650,207.06,0
31.8700,207.06,0
31.8750,-357.82,0
31.8800,-357.82,0
31.8850,-357.82,0
31.8900,-357.82,0
31.8950,173.59,0
31.9000,173.59,0
31.9050,-211.36,0
31.9100,257.74,0
31.9150,-139.98,0
31.9200,-296.89,0
31.9250,-296.89,0
31.9300,-296.89,0
31.9350,-296.89,0
31.9400,-296.89,0
31.9450,435.15,0
31.9500,671.50,0
31.9550,671.50,0
31.9600,384.67,0
31.9650,384.67,0
31.9700,25.89,0
31.9750,25.89,0
31.9800,25.89,0
31.9850,25.89,0
31.9900,-43.57,0
31.9950,-43.57,0
32.0000,254.07,0
32.0050,254.07,0
32.0100,-813.86,0
32.0150,-813.86,0
32.0200,-1075.77,0
32.0250,-1075.77,0
32.0300,465.71,0
32.0350,-1075.77,0
32.0400,-1075.77,0
32.0450,-1075.77,0
32.0500,-935.80,0
32.0550,-935.80,0
32.0600,-1117.97,0
32.0650,-1117.97,0
32.0700,-1117.97,0
32.0750,-800.77,0
32.0800,-800.77,0
32.0850,60.80,0
32.0900,-800.77,0
32.0950,-1424.82,0
32.1000,-1424.82,0
32.1050,-1603.20,0
32.1100,-1603.20,0
32.1150,-1977.56,0
32.1200,-1977.56,0
32.1250,-2326.80,0
32.1300,-1983.36,0
32.1350,-1983.36,0
32.1400,-1983.36,0
32.1450,-2656.97,0
32.1500,-2656.97,0
32.1550,-2995.83,0
32.1600,-1424.82,0
32.1650,-3358.83,0
32.1700,-3358.83,0
32.1750,-3358.83,0
32.1800,-3358.83,0
32.1850,-3358.83,0
32.1900,-3358.83,0
32.1950,-2986.28,0
32.2000,-4340.17,0
32.2050,-1097.73,0
32.2100,-3940.89,0
32.2150,-3940.89,0
32.2200,-3940.89,0
32.2250,-3940.89,0
32.2300,-4874.43,0
32.2350,-4874.43,0
32.2400,-4874.43,0
32.2450,-3221.48,0
32.2500,-5062.28,0
32.2550,-5062.28,0
32.2600,-5062.28,0
32.2650,-4925.47,0
32.2700,-4925.47,0
32.2750,-4693.55,0
32.2800,-4925.47,0
32.2850,-4438.07,0
32.2900,-4511.37,0
32.2950,-4511.37,0
32.3000,-4511.37,0
32.3050,-4511.37,0
32.3100,-3415.50,0
32.3150,-3415.50,0
32.3200,-3415.50,0
32.3250,-3078.36,0
32.3300,-3078.36,0
32.3350,-4857.45,0
32.3400,-4595.87,0
32.3450,-4571.26,0
32.3500,-4693.51,0
32.3550,-5150.04,0
32.3600,-5150.04,0
32.3650,-5150.04,0
32.3700,-5150.04,0
32.3750,-3710.59,0
32.3800,-5455.73,0
32.3850,-5469.05,0
32.3900,-5730.73,0
32.3950,-5469.05,0
32.4000,-5087.11,0
32.4050,-5087.11,0
32.4100,-5087.11,0
32.4150,-5035.45,0
32.4200,-5035.45,0
32.4250,-5038.58,0
32.4300,-5038.58,0
32.4350,-5167.14,0
32.4400,-5167.14,0
32.4450,-5167.14,0
32.4500,-5167.14,0
32.4550,-5167.14,0
32.4600,-5342.55,0
32.4650,-5296.57,0
32.4700,-5288.61,0
32.4750,-5288.61,0
32.4800,-5288.61,0
32.4850,-5288.61,0
32.4900,-5288.61,0
32.4950,-5288.61,0
32.5000,-5043.45,0
32.5050,-5043.45,0
32.5100,-5023.22,0
32.5150,-5191.32,0
32.5200,-4624.14,0
32.5250,-4624.14,0
32.5300,-5023.22,0
32.5350,-4749.57,0
32.5400,-4749.57,0
32.5450,-4876.59,0
32.5500,-4876.59,0
32.5550,-4876.59,0
32.5600,-4819.28,0
32.5650,-4930.06,0
32.5700,-4930.06,0
32.5750,-4930.06,0
32.5800,-5053.37,0
32.5850,-5327.22,0
32.5900,-5321.31,0
32.5950,-5327.22,0
32.6000,-5498.85,0
32.6050,-4901.52,0
32.6100,-4901.52,0
32.6150,-4901.52,0
32.6200,-4593.51,0
32.6250,-4593.51,0
32.6300,-4518.72,0
32.6350,-4518.72,0
32.6400,-4518.72,0
32.6450,-4518.72,0
32.6500,249.65,0
32.6550,319.39,0
32.6600,319.39,0
32.6650,1192.82,0
32.6700,1192.82,0
32.6750,1192.82,0
32.6800,1192.82,0
32.6850,1529.53,0
32.6900,1529.53,0
32.6950,1466.81,0
32.7000,1466.81,0
32.7050,1318.21,0
32.7100,1318.21,0
32.7150,1318.21,0
32.7200,1642.66,0
32.7250,1529.53,0
32.7300,1754.70,0
32.7350,-4718.44,0
32.7400,1196.38,0
32.7450,2205.84,0
32.7500,2205.84,0
32.7550,2205.84,0
32.7600,2205.84,0
32.7650,2205.84,0
32.7700,2557.07,0
32.7750,2557.07,0
32.7800,3215.57,0
32.7850,3215.57,0
32.7900,3291.03,0
32.7950,3291.03,0
32.8000,3291.03,0
32.8050,3215.57,0
32.8100,2627.35,0
32.8150,2654.26,0
32.8200,-136.70,0
32.8250,2654.26,0
32.8300,2971.45,0
32.8350,2014.63,0
32.8400,2014.63,0
32.8450,2014.63,0
32.8500,2014.63,0
32.8550,2014.63,0
32.8600,1981.94,0
32.8650,1981.94,0
32.8700,1088.00,0
32.8750,1088.00,0
32.8800,1936.89,0
32.8850,1125.75,0
32.8900,914.29,0
32.8950,914.29,0
32.9000,914.29,0
32.9050,914.29,0
32.9100,914.29,0
32.9150,914.29,0
32.9200,2760.16,0
32.9250,580.59,0
32.9300,670.60,0
32.9350,670.60,0
32.9400,778.05,0
32.9450,778.05,0
32.9500,1043.41,0
32.9550,1043.41,0
32.9600,258.47,0
32.9650,258.47,0
32.9700,33.05,0
32.9750,3038.73,0
32.9800,-505.34,0
32.9850,-505.34,0
32.9900,-866.23,0
32.9950,-664.04,0
33.0000,-664.04,0
33.0050,-664.04,0
33.0100,682.58,0
33.0150,682.58,0
33.0200,682.58,0
33.0250,682.58,0
33.0300,815.42,0
33.0350,815.42,0
33.0400,-353.56,0
33.0450,855.97,0
33.0500,1981.84,0
33.0550,1751.85,0
33.0600,1751.85,0
33.0650,1751.85,0
33.0700,-866.22,0
33.0750,1751.85,0
33.0800,1289.62,0
33.0850,1410.65,0
33.0900,1410.65,0
33.0950,1410.65,0
33.1000,-729.65,0
33.1050,1211.69,0
33.1100,351.87,0
33.1150,351.87,0
33.1200,375.58,0
33.1250,746.46,0
33.1300,893.69,0
33.1350,746.46,0
33.1400,746.46,0
33.1450,746.46,0
33.1500,-539.81,0
33.1550,-539.81,0
33.1600,-597.53,0
33.1650,-597.53,0
33.1700,-597.53,0
33.1750,-597.53,0
33.1800,-597.53,0
33.1850,-533.24,0
33.1900,-533.24,0
33.1950,-533.24,0
33.2000,282.01,0
33.2050,-746.60,0
33.2100,282.01,0
33.2150,282.01,0
33.2200,282.01,0
33.2250,-529.49,0
33.2300,-529.49,0
33.2350,-606.13,0
33.2400,-606.13,0
33.2450,-109.28,0
33.2500,-202.94,0
33.2550,-202.94,0
33.2600,37.15,0
33.2650,-537.84,0
33.2700,37.15,0
33.2750,37.15,0
33.2800,37.15,0
33.2850,131.39,0
33.2900,131.39,0
33.2950,131.39,0
33.3000,368.40,0
33.3050,368.40,0
33.3100,-238.60,0
33.3150,-238.60,0
33.3200,-588.58,0
33.3250,-588.58,0
33.3300,-498.42,0
33.3350,-104.61,0
33.3400,-1026.43,0
33.3450,-1223.99,0
33.3500,58.32,0
33.3550,-1223.99,0
33.3600,-1223.99,0
33.3650,-1013.61,0
33.3700,58.40,0
33.3750,-518.60,0
33.3800,-518.60,0
33.3850,-9.19,0
33.3900,-518.60,0
33.3950,-518.60,0
33.4000,-518.60,0
33.4050,-431.43,0
33.4100,-1208.87,0
33.4150,-532.54,0
33.4200,-532.54,0
33.4250,-529.34,0
33.4300,-529.34,0
33.4350,-867.34,0
33.4400,-867.34,0
33.4450,-867.34,0
33.4500,-867.34,0
33.4550,-525.06,0
33.4600,-525.06,0
33.4650,-471.06,0
33.4700,-471.06,0
33.4750,-443.09,0
33.4800,-443.09,0
33.4850,-612.87,0
33.4900,-612.87,0
33.4950,-627.31,0
33.5000,-627.31,0
33.5050,-182.17,0
33.5100,-182.17,0
33.5150,-686.14,0
33.5200,-686.14,0
33.5250,-597.90,0
33.5300,-597.90,0
33.5350,-597.90,0
33.5400,-597.90,0
33.5450,-79.89,0
33.5500,-79.89,0
33.5550,33.00,0
33.5600,33.00,0
33.5650,-691.33,0
33.5700,33.00,0
33.5750,-597.90,0
33.5800,846.56,0
33.5850,846.56,0
33.5900,846.56,0
33.5950,700.41,0
33.6000,700.41,0
33.6050,700.41,0
33.6100,-147.55,0
33.6150,-147.55,0
33.6200,-857.14,0
33.6250,-147.55,0
33.6300,700.41,0
33.6350,-147.55,0
33.6400,-346.07,0
33.6450,-346.07,0
33.6500,-281.42,0
33.6550,-281.42,0
33.6600,-272.01,0
33.6650,-272.01,0
33.6700,-307.66,0
33.6750,-843.18,0
33.6800,-179.65,0
33.6850,-179.65,0
33.6900,-695.80,0
33.6950,-179.65,0
33.7000,-46.63,0
33.7050,23.55,0
33.7100,23.55,0
33.7150,773.56,0
33.7200,773.56,0
33.7250,-623.59,0
33.7300,-623.59,0
33.7350,-623.59,0
33.7400,-623.59,0
33.7450,-203.85,0
33.7500,-203.85,0
33.7550,-373.03,0
33.7600,-373.03,0
33.7650,-1131.23,0
33.7700,-1131.23,0
33.7750,-795.93,0
33.7800,-795.93,0
33.7850,-795.93,0
33.7900,-795.93,0
33.7950,-900.37,0
33.8000,-1157.99,0
33.8050,-900.37,0
33.8100,-900.37,0
33.8150,-902.26,0
33.8200,-902.26,0
33.8250,-986.68,0
33.8300,-986.68,0
33.8350,-820.72,0
33.8400,-986.68,0
33.8450,-986.68,0
33.8500,-986.68,0
33.8550,-1111.06,0
33.8600,-1111.06,0
33.8650,-1098.27,0
33.8700,-291.26,0
33.8750,-878.50,0
33.8800,-876.04,0
33.8850,-962.86,0
33.8900,-878.50,0
33.8950,-878.50,0
33.9000,-1359.22,0
33.9050,-1359.22,0
33.9100,-855.07,0
33.9150,-855.07,0
33.9200,-741.10,0
33.9250,-741.10,0
33.9300,-1007.71,0
33.9350,-1007.71,0
33.9400,-948.12,0
33.9450,-948.12,0
33.9500,-858.35,0
33.9550,-858.35,0
33.9600,-1675.18,0
33.9650,-1675.18,0
33.9700,-1774.84,0
33.9750,-1774.84,0
33.9800,-941.66,0
33.9850,-1620.50,0
33.9900,-2139.07,0
33.9950,-2139.07,0
34.0000,-2139.07,0
34.0050,-2139.07,0
34.0100,-2624.78,0
34.0150,-2624.78,0
34.0200,-2703.85,0
34.0250,-2703.85,0
34.0300,-3173.63,0
34.0350,-3173.63,0
34.0400,-3681.99,0
34.0450,-3681.99,0
34.0500,-3681.99,0
34.0550,-3621.49,0
34.0600,-3621.49,0
34.0650,-1946.19,0
34.0700,-3511.08,0
34.0750,-3511.08,0
34.0800,-3511.08,0
34.0850,-515.99,0
34.0900,-3078.60,0
34.0950,-3078.60,0
34.1000,-1676.86,0
34.1050,-3182.24,0
34.1100,-3182.24,0
34.1150,-3182.24,0
34.1200,-3219.22,0
34.1250,-3182.24,0
34.1300,-3182.24,0
34.1350,-2379.98,0
34.1400,-1818.69,0
34.1450,-1818.69,0
34.1500,-1652.99,0
34.1550,-1189.10,0
34.1600,-1189.10,0
34.1650,-1189.10,0
34.1700,-1189.10,0
34.1750,-1189.10,0
34.1800,-1189.10,0
34.1850,-1189.10,0
34.1900,-1189.10,0
34.1950,-1389.29,0
34.2000,-275.95,0
34.2050,-275.95,0
34.2100,-3715.78,0
34.2150,-865.92,0
34.2200,-1143.80,0
34.2250,-1143.80,0
34.2300,-1143.80,0
34.2350,-259.29,0
34.2400,-259.29,0
34.2450,-2326.47,0
34.2500,-19.73,0
34.2550,-2381.19,0
34.2600,-19.73,0
34.2650,-325.48,0
34.2700,-325.48,0
34.2750,712.68,0
34.2800,712.68,0
34.2850,712.68,0
34.2900,712.68,0
34.2950,713.35,0
34.3000,713.35,0
34.3050,246.52,0
34.3100,246.52,0
34.3150,541.03,0
34.3200,541.03,0
34.3250,695.80,0
34.3300,589.46,0
34.3350,695.80,0
34.3400,695.80,0
34.3450,712.68,0
34.3500,-519.49,0
34.3550,-519.49,0
34.3600,-130.16,0
34.3650,-130.16,0
34.3700,712.72,0
34.3750,-162.66,0
34.3800,-518.57,0
34.3850,-518.57,0
34.3900,715.46,0
34.3950,715.46,0
34.4000,715.46,0
34.4050,715.46,0
34.4100,425.25,0
34.4150,425.25,0
34.4200,-76.99,0
34.4250,-76.99,0
34.4300,-873.92,0
34.4350,-873.92,0
34.4400,-347.59,0
34.4450,-347.59,0
34.4500,-347.59,0
34.4550,-347.59,0
34.4600,-24.36,0
34.4650,-24.36,0
34.4700,-24.36,0
34.4750,156.11,0
34.4800,1240.96,0
34.4850,1240.96,0
34.4900,1723.61,0
34.4950,1723.61,0
34.5000,156.11,0
34.5050,-290.70,0
34.5100,1625.16,0
34.5150,1069.76,0
34.5200,1069.76,0
34.5250,1069.76,0
34.5300,1069.76,0
34.5350,540.08,0
34.5400,325.26,0
34.5450,325.26,0
34.5500,325.26,0
34.5550,325.26,0
34.5600,325.26,0
34.5650,325.26,0
34.5700,43.83,0
34.5750,43.83,0
34.5800,6.80,0
34.5850,6.80,0
34.5900,-55.82,0
34.5950,-55.82,0
34.6000,-55.82,0
34.6050,318.91,0
34.6100,-55.82,0
34.6150,219.14,0
34.6200,58.44,0
34.6250,-38.57,0
34.6300,32.30,0
34.6350,-156.24,0
34.6400,-156.24,0
34.6450,-82.01,0
34.6500,-82.01,0
34.6550,-55.82,0
34.6600,-298.84,0
34.6650,62.57,0
34.6700,784.25,0
34.6750,784.25,0
34.6800,784.25,0
34.6850,784.25,0
34.6900,784.25,0
34.6950,-62.91,0
34.7000,784.25,0
34.7050,-136.05,0
34.7100,1390.48,0
34.7150,1789.63,0
34.7200,1789.63,0
34.7250,1650.86,0
34.7300,1650.86,0
34.7350,1518.30,0
34.7400,-65.60,0
34.7450,1518.30,0
34.7500,30.61,0
34.7550,437.56,0
34.7600,1686.20,0
34.7650,73.18,0
34.7700,878.25,0
34.7750,878.25,0
34.7800,413.30,0
34.7850,413.30,0
34.7900,413.30,0
34.7950,413.30,0
34.8000,809.27,0
34.8050,809.27,0
34.8100,818.16,0
34.8150,818.16,0
34.8200,455.73,0
34.8250,1558.79,0
34.8300,455.73,0
34.8350,422.22,0
34.8400,1183.20,0
34.8450,1183.20,0
34.8500,1183.20,0
34.8550,887.36,0
34.8600,1195.96,0
34.8650,1195.96,0
34.8700,1195.96,0
34.8750,1024.63,0
34.8800,960.99,0
34.8850,960.99,0
34.8900,960.99,0
34.8950,960.99,0
34.9000,159.44,0
34.9050,159.44,0
34.9100,-397.64,0
34.9150,-397.64,0
34.9200,873.94,0
34.9250,873.94,0
34.9300,783.10,0
34.9350,783.10,0
34.9400,783.10,0
34.9450,783.10,0
34.9500,316.64,0
34.9550,316.64,0
34.9600,828.04,0
34.9650,718.04,0
34.9700,828.04,0
34.9750,828.04,0
34.9800,1617.26,0
34.9850,1617.26,0
34.9900,1631.05,0
34.9950,1150.85,0
35.0000,1744.24,0
35.0050,1744.24,0
35.0100,1744.24,0
35.0150,1744.24,0
35.0200,1744.24,0
35.0250,1719.96,0
35.0300,1286.66,0
35.0350,1286.66,0
35.0400,1286.66,0
35.0450,2547.84,0
35.0500,2547.84,0
35.0550,2547.84,0
35.0600,2547.84,0
35.0650,2547.84,0
35.0700,2485.97,0
35.0750,2485.97,0
35.0800,2485.97,0
35.0850,1806.69,0
35.0900,1806.69,0
35.0950,420.94,0
35.1000,583.19,0
35.1050,475.55,0
35.1100,475.55,0
35.1150,394.06,0
35.1200,394.06,0
35.1250,170.61,0
35.1300,170.61,0
35.1350,1470.15,0
35.1400,1470.15,0
35.1450,1470.15,0
35.1500,1470.15,0
35.1550,1382.37,0
35.1600,2038.33,0
35.1650,1633.09,0
35.1700,2038.33,0
35.1750,2038.33,0
35.1800,2038.33,0
35.1850,2368.91,0
35.1900,2368.91,0
35.1950,2237.24,0
35.2000,2237.24,0
35.2050,3047.21,0
35.2100,3047.21,0
35.2150,3427.79,0
35.2200,3427.79,0
35.2250,3286.60,0
35.2300,3286.60,0
35.2350,3157.19,0
35.2400,3157.19,0
35.2450,3157.19,0
35.2500,170.48,0
35.2550,3538.20,0
35.2600,3538.20,0
35.2650,3477.00,0
35.2700,3477.00,0
35.2750,3477.00,0
35.2800,3108.97,0
35.2850,3108.97,0
35.2900,3621.77,0
35.2950,3621.77,0
35.3000,3581.88,0
35.3050,3581.88,0
35.3100,3581.88,0
35.3150,3464.63,0
35.3200,3464.63,0
35.3250,3470.30,0
35.3300,3986.20,0
35.3350,3581.88,0
35.3400,3986.20,0
35.3450,3696.08,0
35.3500,3696.08,1
35.3550,3617.84,0
35.3600,3617.84,0
35.3650,1992.34,0
35.3700,3482.46,0
35.3750,3536.80,0
35.3800,3744.27,0
35.3850,3942.98,0
35.3900,3942.98,0
35.3950,3942.98,0
35.4000,3621.71,0
35.4050,3510.10,0
35.4100,3510.10,0
35.4150,3972.34,0
35.4200,3972.34,0
35.4250,3553.57,0
35.4300,3553.57,0
35.4350,3289.80,0
35.4400,3289.80,0
35.4450,3648.83,0
35.4500,3876.20,0
35.4550,3876.20,0
35.4600,3876.20,0
35.4650,4008.15,0
35.4700,3936.12,0
35.4750,3936.12,0
35.4800,3776.66,0
35.4850,3776.66,0
35.4900,3869.28,0
35.4950,3869.28,0
35.5000,4083.65,0
35.5050,4083.65,0
35.5100,4083.65,0
35.5150,4083.65,0
35.5200,5510.71,0
35.5250,5510.71,0
35.5300,6106.48,0
35.5350,6106.48,0
35.5400,6556.81,0
35.5450,6556.81,0
35.5500,6556.81,0
35.5550,6250.72,0
35.5600,6250.72,0
35.5650,6250.72,0
35.5700,6250.72,0
35.5750,7527.26,0
35.5800,8021.27,0
35.5850,8021.27,0
35.5900,6973.65,0
35.5950,6973.65,0
35.6000,7351.09,0
35.6050,7351.09,0
35.6100,7351.09,0
35.6150,7351.09,0
35.6200,8408.25,0
35.6250,8408.25,0
35.6300,8158.72,0
35.6350,8158.72,0
35.6400,8771.07,0
35.6450,8771.07,0
35.6500,9044.33,0
35.6550,8771.07,0
35.6600,8952.25,0
35.6650,8952.25,0
35.6700,8477.67,0
35.6750,8477.67,0
35.6800,7648.75,0
35.6850,7648.75,0
35.6900,7648.75,0
35.6950,7648.75,0
35.7000,8148.20,0
35.7050,8148.20,0
35.7100,7776.77,0
35.7150,7776.77,0
35.7200,7247.90,0
35.7250,7247.90,0
35.7300,8477.68,0
35.7350,8090.12,0
35.7400,7247.90,0
35.7450,7247.90,0
35.7500,7247.90,0
35.7550,6882.99,0
35.7600,6882.99,0
35.7650,6096.01,0
35.7700,8284.85,0
35.7750,6441.73,0
35.7800,6397.43,0
35.7850,6397.43,0
35.7900,6397.43,0
35.7950,6430.42,0
35.8000,6430.42,0
35.8050,6424.99,0
35.8100,6424.99,0
35.8150,6487.65,0
35.8200,6487.65,0
35.8250,6571.04,0
35.8300,6571.04,0
35.8350,6608.68,0
35.8400,6608.68,0
35.8450,6523.05,0
35.8500,6523.05,0
35.8550,6581.62,0
35.8600,6550.41,0
35.8650,6550.41,0
35.8700,6663.42,0
35.8750,6663.42,0
35.8800,6623.33,0
35.8850,6623.33,0
35.8900,-188.22,0
35.8950,-188.22,0
35.9000,-425.94,0
35.9050,6663.42,0
35.9100,-425.94,0
35.9150,6433.44,0
35.9200,342.02,0
35.9250,342.02,0
35.9300,162.09,0
35.9350,162.09,0
35.9400,399.97,0
35.9450,6567.63,0
35.9500,-120.16,0
35.9550,-120.16,0
35.9600,399.97,0
35.9650,-120.16,0
35.9700,-120.16,0
35.9750,933.90,0
35.9800,933.90,0
35.9850,1191.23,0
35.9900,950.09,0
35.9950,950.09,0
36.0000,950.09,0
36.0050,1391.43,0
36.0100,297.75,0
36.0150,1391.43,0
36.0200,1202.97,0
36.0250,1202.97,0
36.0300,900.59,0
36.0350,900.59,0
36.0400,916.22,0
36.0450,916.22,0
36.0500,950.09,0
36.0550,1399.27,0
36.0600,900.59,0
36.0650,1999.34,0
36.0700,1984.32,0
36.0750,1984.32,0
36.0800,1454.69,0
36.0850,1454.69,0
36.0900,1039.77,0
36.0950,1827.34,0
36.1000,2455.87,0
36.1050,2455.87,0
36.1100,2169.96,0
36.1150,2169.96,0
36.1200,2169.96,0
36.1250,2169.96,0
36.1300,2625.06,0
36.1350,2625.06,0
36.1400,2333.78,0
36.1450,2333.78,0
36.1500,358.53,0
36.1550,2510.68,0
36.1600,2938.64,0
36.1650,2938.64,0
36.1700,2938.64,0
36.1750,1906.17,0
36.1800,2625.06,0
36.1850,2938.64,0
36.1900,2729.29,0
36.1950,2729.29,0
36.2000,2303.02,0
36.2050,2303.02,0
36.2100,1798.30,0
36.2150,1798.30,0
36.2200,1700.29,0
36.2250,1700.29,0
36.2300,1700.29,0
36.2350,1700.29,0
36.2400,2276.86,0
36.2450,2276.86,0
36.2500,1700.29,0
36.2550,2031.20,0
36.2600,2231.46,0
36.2650,2231.46,0
36.2700,2355.58,0
36.2750,2355.58,0
36.2800,2355.58,0
36.2850,2355.58,0
36.2900,2355.58,0
36.2950,2355.58,0
36.3000,2333.12,0
36.3050,2333.12,0
36.3100,2330.72,0
36.3150,2330.72,0
36.3200,2330.72,0
36.3250,2330.72,0
36.3300,2332.75,0
36.3350,2332.75,0
36.3400,2235.55,0
36.3450,2235.55,0
36.3500,2288.11,0
36.3550,2288.11,0
36.3600,2288.11,0
36.3650,2288.11,0
36.3700,2223.88,0
36.3750,2223.88,0
36.3800,2142.03,0
36.3850,2142.03,0
36.3900,2142.03,0
36.3950,2142.03,0
36.4000,1955.08,0
36.4050,1955.08,0
36.4100,1955.08,0
36.4150,1955.08,0
36.4200,2776.17,0
36.4250,2776.17,0
36.4300,3319.60,0
36.4350,3319.60,0
36.4400,3121.39,0
36.4450,3121.39,0
36.4500,3635.04,0
36.4550,3995.10,0
36.4600,2732.54,0
36.4650,2233.96,0
36.4700,3404.72,0
36.4750,3404.72,0
36.4800,3262.11,0
36.4850,3262.11,0
36.4900,3671.34,0
36.4950,3671.34,0
36.5000,3671.34,0
36.5050,3671.34,0
36.5100,3924.27,0
36.5150,3924.27,0
36.5200,3337.47,0
36.5250,3337.47,0
36.5300,3580.64,0
36.5350,3712.10,0
36.5400,3894.87,0
36.5450,3894.87,0
36.5500,3894.87,0
36.5550,3894.87,0
36.5600,3173.32,0
36.5650,3173.32,0
36.5700,2982.31,0
36.5750,2645.21,0
36.5800,2645.21,0
36.5850,2299.02,0
36.5900,3912.20,0
36.5950,2299.02,0
36.6000,2101.90,0
36.6050,2101.90,0
36.6100,2007.13,0
36.6150,2007.13,0
36.6200,2128.15,0
36.6250,1303.05,0
36.6300,1303.05,0
36.6350,1080.81,0
36.6400,3256.05,0
36.6450,1080.81,0
36.6500,1080.81,0
36.6550,1072.96,0
36.6600,1072.96,0
36.6650,1072.96,0
36.6700,567.56,0
36.6750,979.47,0
36.6800,-58.24,0
36.6850,-375.40,0
36.6900,-375.40,0
36.6950,-375.40,0
36.7000,1737.20,0
36.7050,-28.77,0
36.7100,-1380.75,0
36.7150,-1380.75,0
36.7200,-1380.75,0
36.7250,-1450.18,0
36.7300,-1450.18,0
36.7350,-1348.90,0
36.7400,-1348.90,0
36.7450,-1839.58,0
36.7500,-1839.58,0
36.7550,-2078.18,0
36.7600,-2078.18,0
36.7650,-2078.18,0
36.7700,-2117.14,0
36.7750,-2117.14,0
36.7800,-1980.40,0
36.7850,-1980.40,0
36.7900,-1822.44,0
36.7950,-1822.44,0
36.8000,-1823.07,0
36.8050,-1450.17,0
36.8100,-1782.17,0
36.8150,-1782.17,0
36.8200,-1852.78,0
36.8250,1832.06,0
36.8300,-1850.20,0
36.8350,-1850.20,0
36.8400,-1963.95,0
36.8450,-1963.95,0
36.8500,-1963.95,0
36.8550,-1159.27,0
36.8600,-1159.27,0
36.8650,-1159.27,0
36.8700,-1396.77,0
36.8750,-1396.77,0
36.8800,-1396.77,0
36.8850,-1396.77,0
36.8900,-30.55,0
36.8950,-2688.35,0
36.9000,-2688.35,0
36.9050,-2714.38,0
36.9100,-2714.38,0
36.9150,-3735.30,0
36.9200,-3735.30,0
36.9250,-4334.33,0
36.9300,-4334.33,0
36.9350,-4354.96,0
36.9400,-4354.96,0
36.9450,-4548.23,0
36.9500,-1780.94,0
36.9550,-5150.57,0
36.9600,-5150.57,0
36.9650,-5383.21,0
36.9700,-5383.21,0
36.9750,-5383.21,0
36.9800,-5305.34,0
36.9850,-5305.34,0
36.9900,-5493.44,0
36.9950,-5493.44,0
37.0000,-5998.23,0
37.0050,-5998.23,0
37.0100,-3243.78,0
37.0150,-3920.73,0
37.0200,-6476.06,0
37.0250,-6693.18,0
37.0300,-6693.18,0
37.0350,-7188.69,0
37.0400,-7188.69,0
37.0450,-7427.92,0
37.0500,-7427.92,0
37.0550,-7551.24,0
37.0600,-7551.24,0
37.0650,-7681.33,0
37.0700,-7681.33,0
37.0750,-7512.38,0
37.0800,-7512.38,0
37.0850,-7813.69,0
37.0900,-7813.69,0
37.0950,-7813.69,0
37.1000,-5386.06,0
37.1050,-7789.45,0
37.1100,-7789.45,0
37.1150,-7397.30,0
37.1200,-7397.30,0
37.1250,-7832.64,0
37.1300,-7832.64,0
37.1350,-7638.61,0
37.1400,-7638.61,0
37.1450,-7745.10,0
37.1500,-7741.80,0
37.1550,-7379.77,0
37.1600,-7379.77,0
37.1650,-7508.98,0
37.1700,-7508.98,0
37.1750,-6678.83,0
37.1800,-6678.83,0
37.1850,-6824.28,0
37.1900,-6824.28,0
37.1950,-7409.01,0
37.2000,-7409.01,0
37.2050,-7289.08,0
37.2100,-7289.08,0
37.2150,-7289.08,0
37.2200,-7289.08,0
37.2250,-7663.26,0
37.2300,-7663.26,0
37.2350,-6942.97,0
37.2400,-6942.97,0
37.2450,-7420.04,0
37.2500,-7420.04,0
37.2550,-7711.41,0
37.2600,-7711.41,0
37.2650,-7760.44,0
37.2700,-7760.44,0
37.2750,-7032.60,0
37.2800,-7032.60,0
37.2850,-7345.59,0
37.2900,-7345.59,0
37.2950,-7345.59,0
37.3000,-7830.30,0
37.3050,-7593.32,0
37.3100,-7891.31,0
37.3150,-7420.03,0
37.3200,-7180.67,0
37.3250,-7730.99,0
37.3300,-7730.99,0
37.3350,-7730.99,0
37.3400,-7730.99,0
37.3450,-7760.43,0
37.3500,-6926.35,0
37.3550,-6926.35,0
37.3600,-6777.67,0
37.3650,-7420.46,0
37.3700,-7237.71,0
37.3750,-7237.71,0
37.3800,-6871.79,0
37.3850,-6871.79,0
37.3900,-6871.79,0
37.3950,-6871.79,0
37.4000,-6871.79,0
37.4050,-6817.76,0
37.4100,-6817.76,0
37.4150,-6923.33,0
37.4200,-6923.33,0
37.4250,-6911.13,0
37.4300,-6911.13,0
37.4350,-6911.13,0
37.4400,-6911.13,0
37.4450,-6990.02,0
37.4500,-6990.02,0
37.4550,-7048.54,0
37.4600,-7048.54,0
37.4650,-7085.84,0
37.4700,-7085.84,0
37.4750,-7085.84,0
37.4800,-7101.07,0
37.4850,-7101.07,0
37.4900,-7101.07,0
37.4950,-7101.07,0
37.5000,-7101.07,0
37.5050,-7101.07,0
37.5100,-6917.78,0
37.5150,-5971.86,0
37.5200,-5971.86,0
37.5250,1118.94,0
37.5300,1118.94,0
37.5350,832.35,0
37.5400,832.35,0
37.5450,-7101.07,0
37.5500,-157.84,0
37.5550,-7021.14,0
37.5600,-671.98,0
37.5650,-671.98,0
37.5700,-1307.77,0
37.5750,-1307.77,0
37.5800,-1516.49,0
37.5850,-1516.49,0
37.5900,-671.98,0
37.5950,-6895.14,0
37.6000,-1226.01,0
37.6050,-3347.51,0
37.6100,-3347.51,0
37.6150,-3347.51,0
37.6200,-3347.51,0
37.6250,-3783.56,0
37.6300,-3783.56,0
37.6350,-3783.56,0
37.6400,-4008.16,0
37.6450,-4008.16,0
37.6500,-3963.31,0
37.6550,-3963.31,0
37.6600,-3989.66,0
37.6650,-3989.66,0
37.6700,-3989.66,0
37.6750,-3976.75,0
37.6800,-3976.75,0
37.6850,-3906.56,0
37.6900,-3906.56,0
37.6950,-3890.51,0
37.7000,-3890.51,0
37.7050,-3890.51,0
37.7100,-3890.51,0
37.7150,-3890.51,0
37.7200,-3890.51,0
37.7250,-3875.05,0
37.7300,-3875.05,0
37.7350,-3902.34,0
37.7400,-3902.34,0
37.7450,-4310.27,0
37.7500,-4310.27,0
37.7550,-4148.23,0
37.7600,-4148.23,0
37.7650,-3870.53,0
37.7700,-3995.06,0
37.7750,-3909.77,0
37.7800,-3909.77,0
37.7850,-3909.77,0
37.7900,-3909.77,0
37.7950,-5163.22,0
37.8000,-5163.22,0
37.8050,-5850.91,0
37.8100,-5850.91,0
37.8150,-5771.62,0
37.8200,-5771.62,0
37.8250,-6433.02,0
37.8300,-6433.02,0
37.8350,-6433.02,0
37.8400,-6433.02,0
37.8450,-7734.55,0
37.8500,-7734.55,0
37.8550,-5854.59,0
37.8600,-8007.93,0
37.8650,-9353.10,0
37.8700,-9353.10,0
37.8750,-9917.02,0
37.8800,-9917.02,0
37.8850,-9917.02,0
37.8900,-9917.02,0
37.8950,-9917.02,0
37.9000,-9917.02,0
37.9050,-12311.71,0
37.9100,-12311.71,0
37.9150,-12870.30,0
37.9200,-12870.30,0
37.9250,-8007.93,0
37.9300,-13588.26,0
37.9350,-14547.33,0
37.9400,-14547.33,0
37.9450,-14547.33,0
37.9500,-15258.40,0
37.9550,-15258.40,0
37.9600,-15367.84,0
37.9650,-15367.84,0
37.9700,-15381.92,0
37.9750,-15381.92,0
37.9800,-15381.92,0
37.9850,-15381.92,0
37.9900,-17247.69,0
37.9950,-17247.69,0
38.0000,-17782.32,0
38.0050,-17782.32,0
38.0100,-18523.06,0
38.0150,-18523.06,0
38.0200,-18812.74,0
38.0250,-19398.58,0
38.0300,-19398.58,0
38.0350,-19398.58,0
38.0400,-19278.50,0
38.0450,-19278.50,0
38.0500,-19343.94,0
38.0550,-19826.68,0
38.0600,-19826.68,0
38.0650,-15368.35,0
38.0700,-20318.89,0
38.0750,-20230.91,0
38.0800,-20230.91,0
38.0850,-20230.91,0
38.0900,-20230.91,0
38.0950,-13533.91,0
38.1000,-20328.82,0
38.1050,-21184.71,0
38.1100,-21184.71,0
38.1150,-21232.41,0
38.1200,-21232.41,0
38.1250,-21232.41,0
38.1300,-21232.41,0
38.1350,-21784.34,0
38.1400,-19242.02,0
38.1450,-22269.54,0
38.1500,-22269.54,0
38.1550,-22177.84,0
38.1600,-22177.84,0
38.1650,-22278.01,0
38.1700,-22278.01,0
38.1750,-22779.52,0
38.1800,-22779.52,0
38.1850,-23251.00,0
38.1900,-23251.00,0
38.1950,-23151.86,0
38.2000,-23151.86,0
38.2050,-23280.00,0
38.2100,-23280.00,0
38.2150,-19524.65,0
38.2200,-23742.63,0
38.2250,-24149.03,0
38.2300,-24149.03,0
38.2350,-24138.78,0
38.2400,-24138.78,0
38.2450,-24138.78,0
38.2500,-24138.78,0
38.2550,-24748.09,0
38.2600,-24748.09,0
38.2650,-25223.14,0
38.2700,-25223.14,0
38.2750,-25149.53,0
38.2800,-23250.50,0
38.2850,-25243.17,0
38.2900,-25243.17,0
38.2950,-10064.22,0
38.3000,-24471.30,0
38.3050,-26222.41,0
38.3100,-26222.41,0
38.3150,-26111.95,0
38.3200,-26111.95,0
38.3250,-23806.09,0
38.3300,-23806.09,0
38.3350,-888.66,0
38.3400,-888.66,0
38.3450,-165.99,0
38.3500,-165.99,0
38.3550,-965.95,0
38.3600,-965.95,0
38.3650,-1042.72,0
38.3700,-1042.72,0
38.3750,-862.51,0
38.3800,-862.51,0
38.3850,-862.51,0
38.3900,-862.51,0
38.3950,-2188.38,0
38.4000,-2188.38,0
38.4050,-2820.09,0
38.4100,-2820.09,0
38.4150,-1956.85,0
38.4200,-25330.89,0
38.4250,-3480.19,0
38.4300,-3480.19,0
38.4350,-3690.98,0
38.4400,-3690.98,0
38.4450,-3765.26,0
38.4500,-3765.26,0
38.4550,-4487.90,0
38.4600,-4487.90,0
38.4650,-5130.37,0
38.4700,-5130.37,0
38.4750,-5130.37,0
38.4800,-5130.37,0
38.4850,-5130.37,0
38.4900,-5130.37,0
38.4950,-6417.22,0
38.5000,-6417.22,0
38.5050,-6635.92,0
38.5100,-3044.63,0
38.5150,-778.58,0
38.5200,-6576.95,0
38.5250,-6718.23,0
38.5300,-3875.17,0
38.5350,-7450.61,0
38.5400,-3480.01,0
38.5450,-7450.61,0
38.5500,-7450.61,0
38.5550,-8706.54,0
38.5600,-8706.54,0
38.5650,-8936.14,0
