timestamp,ch1 (µV),event
12.6200,21.46,0
12.6250,2.79,0
12.6300,2.79,0
12.6350,18.57,0
12.6400,18.57,0
12.6450,-18.00,0
12.6500,-18.00,0
12.6550,-5.99,0
12.6600,-12.97,0
12.6650,4.82,0
12.6700,4.82,0
12.6750,19.21,0
12.6800,19.21,0
12.6850,-15.48,0
12.6900,-15.48,0
12.6950,-5.97,0
12.7000,-5.97,0
12.7050,6.82,0
12.7100,6.82,0
12.7150,24.85,0
12.7200,17.46,0
12.7250,24.25,0
12.7300,24.25,0
12.7350,24.25,0
12.7400,24.25,0
12.7450,7.26,0
12.7500,21.62,0
12.7550,17.35,0
12.7600,-7.27,0
12.7650,-17.33,0
12.7700,-17.33,0
12.7750,24.99,0
12.7800,24.99,0
12.7850,2.79,0
12.7900,2.79,0
12.7950,25.19,0
12.8000,25.19,0
12.8050,-26.61,0
12.8100,-26.61,0
12.8150,6.34,0
12.8200,-6.46,0
12.8250,4.78,0
12.8300,2.64,0
12.8350,2.64,0
12.8400,28.91,0
12.8450,26.33,0
12.8500,4.81,0
12.8550,2.64,0
12.8600,31.54,0
12.8650,27.63,0
12.8700,5.10,0
12.8750,5.10,0
12.8800,5.10,0
12.8850,-29.03,0
12.8900,-29.03,0
12.8950,-11.17,0
12.9000,-11.17,0
12.9050,0.93,0
12.9100,0.93,0
12.9150,25.48,0
12.9200,8.54,0
12.9250,-27.72,0
12.9300,-27.72,0
12.9350,-8.04,0
12.9400,-8.04,0
12.9450,-8.04,0
12.9500,-8.04,0
12.9550,4.03,0
12.9600,4.03,0
12.9650,-19.04,0
12.9700,32.45,0
12.9750,-30.60,0
12.9800,32.45,0
12.9850,-0.00,0
12.9900,-0.00,0
12.9950,28.71,0
13.0000,28.71,0
13.0050,32.45,0
13.0100,-27.99,0
13.0150,34.12,0
13.0200,-11.68,0
13.0250,-11.68,0
13.0300,-11.68,0
13.0350,27.98,0
13.0400,27.98,0
13.0450,27.98,0
13.0500,15.35,0
13.0550,15.35,0
13.0600,15.35,0
13.0650,15.35,0
13.0700,38.01,0
13.0750,38.01,0
13.0800,16.96,0
13.0850,16.96,0
13.0900,-21.34,0
13.0950,35.35,0
13.1000,-21.34,0
13.1050,38.37,0
13.1100,-8.47,0
13.1150,38.37,0
13.1200,38.37,0
13.1250,15.29,0
13.1300,15.29,0
13.1350,10.28,0
13.1400,10.28,0
13.1450,40.97,0
13.1500,40.97,0
13.1550,-18.90,0
13.1600,-18.90,0
13.1650,15.47,0
13.1700,15.47,0
13.1750,51.02,0
13.1800,-19.91,0
13.1850,-19.91,0
13.1900,-19.91,0
13.1950,-21.29,0
13.2000,15.47,0
13.2050,18.60,0
13.2100,18.60,0
13.2150,18.60,0
13.2200,18.60,0
13.2250,18.60,0
13.2300,-19.24,0
13.2350,-19.24,0
13.2400,-19.24,0
13.2450,16.92,0
13.2500,16.92,0
13.2550,14.76,0
13.2600,14.76,0
13.2650,-6.29,0
13.2700,-19.95,0
13.2750,-19.95,0
13.2800,-19.95,0
13.2850,-19.95,0
13.2900,14.47,0
13.2950,14.47,0
13.3000,-20.28,0
13.3050,-20.28,0
13.3100,-17.02,0
13.3150,-17.02,0
13.3200,15.50,0
13.3250,15.50,0
13.3300,14.02,0
13.3350,14.02,0
13.3400,-20.39,0
13.3450,-20.39,0
13.3500,36.97,0
13.3550,36.97,0
13.3600,13.59,0
13.3650,13.59,0
13.3700,10.98,0
13.3750,10.98,0
13.3800,36.50,0
13.3850,36.50,0
13.3900,-19.61,0
13.3950,-19.61,0
13.4000,-19.61,0
13.4050,-19.61,0
13.4100,37.74,0
13.4150,16.15,0
13.4200,-24.74,0
13.4250,-24.74,0
13.4300,-24.74,0
13.4350,-17.63,0
13.4400,-17.63,0
13.4450,12.64,0
13.4500,12.64,0
13.4550,12.64,0
13.4600,12.64,0
13.4650,-23.04,0
13.4700,-23.04,0
13.4750,37.94,0
13.4800,37.94,0
13.4850,32.36,0
13.4900,11.17,0
13.4950,15.41,0
13.5000,15.41,0
13.5050,-24.48,0
13.5100,-24.48,0
13.5150,-2.63,0
13.5200,38.80,0
13.5250,-16.33,0
13.5300,-16.33,0
13.5350,19.62,0
13.5400,19.62,0
13.5450,-25.75,0
13.5500,-25.75,0
13.5550,-16.33,0
13.5600,36.53,0
13.5650,37.94,0
13.5700,-17.45,0
13.5750,10.02,0
13.5800,10.02,0
13.5850,-26.40,0
13.5900,39.56,0
13.5950,39.56,0
13.6000,39.56,0
13.6050,39.56,0
13.6100,14.55,0
13.6150,14.55,0
13.6200,16.89,0
13.6250,29.45,0
13.6300,16.89,0
13.6350,36.58,0
13.6400,36.58,0
13.6450,-16.96,0
13.6500,11.04,0
13.6550,11.04,0
13.6600,19.93,0
13.6650,19.93,0
13.6700,19.93,0
13.6750,-23.53,0
13.6800,-23.53,0
13.6850,-14.44,0
13.6900,11.79,0
13.6950,11.79,0
13.7000,-21.90,0
13.7050,-21.90,0
13.7100,38.68,0
13.7150,38.68,0
13.7200,38.68,0
13.7250,38.68,0
13.7300,10.31,0
13.7350,10.31,0
13.7400,18.30,0
13.7450,18.30,0
13.7500,-24.11,0
13.7550,-24.11,0
13.7600,-14.63,0
13.7650,-14.63,0
13.7700,0.83,0
13.7750,-14.63,0
13.7800,-14.63,0
13.7850,20.31,0
13.7900,-14.43,0
13.7950,17.57,0
13.8000,-15.82,0
13.8050,-21.90,0
13.8100,11.89,0
13.8150,11.89,0
13.8200,11.89,0
13.8250,11.89,0
13.8300,-26.31,0
13.8350,-26.31,0
13.8400,38.32,0
13.8450,38.32,0
13.8500,9.86,0
13.8550,9.86,0
13.8600,24.58,0
13.8650,24.58,0
13.8700,-0.40,0
13.8750,-0.40,0
13.8800,-0.40,0
13.8850,-0.40,0
13.8900,37.69,0
13.8950,37.69,0
13.9000,-23.96,0
13.9050,-23.96,0
13.9100,-0.16,0
13.9150,-0.16,0
13.9200,-0.16,0
13.9250,0.82,0
13.9300,-13.28,0
13.9350,37.82,0
13.9400,-24.75,0
13.9450,-24.75,0
13.9500,-24.75,0
13.9550,23.83,0
13.9600,23.83,0
13.9650,-10.62,0
13.9700,36.43,0
13.9750,36.43,0
13.9800,23.24,0
13.9850,23.24,0
13.9900,23.24,0
13.9950,2.20,0
14.0000,2.20,0
14.0050,2.20,0
14.0100,2.20,0
14.0150,36.52,0
14.0200,-0.58,0
14.0250,-17.26,0
14.0300,-26.26,0
14.0350,5.64,0
14.0400,5.64,0
14.0450,5.64,0
14.0500,5.64,0
14.0550,5.64,0
14.0600,5.64,0
14.0650,-25.55,0
14.0700,-15.71,0
14.0750,23.88,0
14.0800,23.88,0
14.0850,2.20,0
14.0900,-13.18,0
14.0950,38.61,0
14.1000,38.61,0
14.1050,-24.92,0
14.1100,-11.09,0
14.1150,24.22,0
14.1200,24.22,0
14.1250,3.50,0
14.1300,3.50,0
14.1350,-11.09,0
14.1400,40.64,0
14.1450,-25.20,0
14.1500,-25.20,0
14.1550,-10.35,0
14.1600,5.51,0
14.1650,-11.99,0
14.1700,-11.99,0
14.1750,-11.99,0
14.1800,-11.99,0
14.1850,24.55,0
14.1900,-26.47,0
14.1950,23.91,0
14.2000,28.12,0
14.2050,-14.56,0
14.2100,-14.56,0
14.2150,36.68,0
14.2200,-11.50,0
14.2250,36.68,0
14.2300,-24.65,0
14.2350,-24.65,0
14.2400,5.34,0
14.2450,5.34,0
14.2500,34.37,0
14.2550,-28.47,0
14.2600,34.37,0
14.2650,-21.71,0
14.2700,-21.71,0
14.2750,23.07,0
14.2800,23.07,0
14.2850,21.34,0
14.2900,8.15,0
14.2950,-14.67,0
14.3000,-14.67,0
14.3050,37.50,0
14.3100,37.50,0
14.3150,19.52,0
14.3200,19.52,0
14.3250,7.14,0
14.3300,7.14,0
14.3350,37.36,0
14.3400,37.36,0
14.3450,-11.44,0
14.3500,37.36,0
14.3550,20.44,0
14.3600,20.44,0
14.3650,8.80,0
14.3700,-16.29,0
14.3750,-16.29,0
14.3800,39.16,0
14.3850,39.16,0
14.3900,-22.48,0
14.3950,-22.48,0
14.4000,9.18,0
14.4050,9.18,0
14.4100,9.18,0
14.4150,-18.14,0
14.4200,-26.66,0
14.4250,-20.09,0
14.4300,-20.09,0
14.4350,37.37,0
14.4400,19.59,0
14.4450,19.59,0
14.4500,19.59,0
14.4550,-16.93,0
14.4600,38.61,0
14.4650,38.61,0
14.4700,38.61,0
14.4750,20.74,0
14.4800,19.91,0
14.4850,7.74,0
14.4900,-20.63,0
14.4950,-20.63,0
14.5000,34.73,0
14.5050,34.73,0
14.5100,34.73,0
14.5150,-21.16,0
14.5200,-21.16,0
14.5250,8.31,0
14.5300,8.31,0
14.5350,-17.89,0
14.5400,37.94,0
14.5450,37.94,0
14.5500,37.94,0
14.5550,18.77,0
14.5600,18.77,0
14.5650,18.77,0
14.5700,18.77,0
14.5750,-19.29,0
14.5800,-19.29,0
14.5850,34.78,0
14.5900,-25.72,0
14.5950,-20.51,0
14.6000,38.52,0
14.6050,20.62,0
14.6100,10.65,0
14.6150,10.65,0
14.6200,34.91,0
14.6250,34.91,0
14.6300,37.94,0
14.6350,-17.49,0
14.6400,10.65,0
14.6450,-17.49,0
14.6500,-17.49,0
14.6550,16.32,0
14.6600,16.32,0
14.6650,-18.37,0
14.6700,-18.37,0
14.6750,-18.37,0
14.6800,-18.37,0
14.6850,-28.31,0
14.6900,29.95,0
14.6950,31.61,0
14.7000,31.61,0
14.7050,-0.32,0
14.7100,-0.32,0
14.7150,30.25,0
14.7200,30.25,0
14.7250,30.25,0
14.7300,30.25,0
14.7350,30.75,0
14.7400,-7.28,0
14.7450,-7.28,0
14.7500,-7.28,0
14.7550,25.57,0
14.7600,25.57,0
14.7650,-25.36,0
14.7700,-25.36,0
14.7750,31.09,0
14.7800,31.09,0
14.7850,-7.06,0
14.7900,-7.06,0
14.7950,-5.23,0
14.8000,-7.06,0
14.8050,-23.91,0
14.8100,-23.91,0
14.8150,27.37,0
14.8200,27.37,0
14.8250,-8.34,0
14.8300,-8.34,0
14.8350,-1.35,0
14.8400,-1.35,0
14.8450,27.24,0
14.8500,27.24,0
14.8550,27.19,0
14.8600,27.19,0
14.8650,27.19,0
14.8700,27.19,0
14.8750,-9.57,0
14.8800,-9.57,0
14.8850,32.49,0
14.8900,32.49,0
14.8950,32.49,0
14.9000,-28.00,0
14.9050,-28.00,0
14.9100,-4.31,0
14.9150,-4.31,0
14.9200,-26.73,0
14.9250,-26.73,0
14.9300,27.16,0
14.9350,-29.73,0
14.9400,27.16,0
14.9450,27.16,0
14.9500,36.97,0
14.9550,27.16,0
14.9600,27.16,0
14.9650,-2.51,0
14.9700,-2.51,0
14.9750,27.45,0
14.9800,-17.46,0
14.9850,-7.89,0
14.9900,-7.89,0
14.9950,-7.89,0
15.0000,-7.89,0
15.0050,32.86,0
15.0100,32.86,0
15.0150,-40.37,0
15.0200,-27.10,0
15.0250,-4.92,0
15.0300,-4.92,0
15.0350,-5.13,0
15.0400,-5.13,0
15.0450,32.24,0
15.0500,32.24,0
15.0550,-25.13,0
15.0600,-16.97,0
15.0650,30.78,0
15.0700,30.78,0
15.0750,-6.13,0
15.0800,-6.13,0
15.0850,33.48,0
15.0900,-26.32,0
15.0950,-26.32,0
15.1000,34.94,0
15.1050,27.77,0
15.1100,-3.84,0
15.1150,-3.84,0
15.1200,-3.84,0
15.1250,35.60,0
15.1300,35.60,0
15.1350,-26.28,0
15.1400,-26.28,0
15.1450,-1.45,0
15.1500,-1.45,0
15.1550,-6.59,0
15.1600,-6.59,0
15.1650,-6.59,0
15.1700,-24.06,0
15.1750,-24.06,0
15.1800,25.72,0
15.1850,25.72,0
15.1900,-7.02,0
15.1950,-7.02,0
15.2000,35.13,0
15.2050,35.13,0
15.2100,35.13,0
15.2150,35.13,0
15.2200,28.15,0
15.2250,28.15,0
15.2300,-1.97,0
15.2350,32.37,0
15.2400,34.22,0
15.2450,35.13,0
15.2500,-28.08,0
15.2550,-28.08,0
15.2600,26.55,0
15.2650,26.55,0
15.2700,-16.62,0
15.2750,-0.70,0
15.2800,-9.83,0
15.2850,-9.83,0
15.2900,-27.25,0
15.2950,-27.25,0
15.3000,29.36,0
15.3050,29.36,0
15.3100,-6.82,0
15.3150,-6.82,0
15.3200,33.27,0
15.3250,13.06,0
15.3300,33.27,0
15.3350,33.27,0
15.3400,27.42,0
15.3450,27.42,0
15.3500,-1.04,0
15.3550,-1.04,0
15.3600,37.47,0
15.3650,37.47,0
15.3700,37.47,0
15.3750,-27.53,0
15.3800,-27.53,0
15.3850,28.49,0
15.3900,28.49,0
15.3950,2.94,0
15.4000,21.19,0
15.4050,-7.45,0
15.4100,-7.45,0
15.4150,-26.86,0
15.4200,-26.86,0
15.4250,28.25,0
15.4300,28.25,0
15.4350,-10.55,0
15.4400,-10.55,0
15.4450,39.78,0
15.4500,39.78,0
15.4550,39.78,0
15.4600,39.78,0
15.4650,27.27,0
15.4700,2.17,0
15.4750,2.17,0
15.4800,2.17,0
15.4850,35.77,0
15.4900,35.77,0
15.4950,10.22,0
15.5000,24.29,0
15.5050,24.29,0
15.5100,-26.15,0
15.5150,-26.15,0
15.5200,-26.15,0
15.5250,-17.24,0
15.5300,-17.24,0
15.5350,8.58,0
15.5400,8.58,0
15.5450,21.32,0
15.5500,21.32,0
15.5550,-25.63,0
15.5600,-25.63,0
15.5650,35.12,0
15.5700,35.12,0
15.5750,7.64,0
15.5800,7.64,0
15.5850,21.68,0
15.5900,21.68,0
15.5950,35.74,0
15.6000,35.74,0
15.6050,-16.02,0
15.6100,-15.13,0
15.6150,-15.13,0
15.6200,-15.13,0
15.6250,23.26,0
15.6300,23.26,0
15.6350,-25.42,0
15.6400,-25.42,0
15.6450,35.81,0
15.6500,-25.42,0
15.6550,-15.48,0
15.6600,-15.48,0
15.6650,-15.48,0
15.6700,-15.48,0
15.6750,-27.82,0
15.6800,-27.82,0
15.6850,37.14,0
15.6900,37.14,0
15.6950,9.28,0
15.7000,35.76,0
15.7050,25.29,0
15.7100,25.29,0
15.7150,-25.72,0
15.7200,-25.72,0
15.7250,36.11,0
15.7300,36.11,0
15.7350,-13.96,0
15.7400,-13.96,0
15.7450,21.38,0
15.7500,21.38,0
15.7550,21.38,0
15.7600,-25.98,0
15.7650,-25.04,0
15.7700,-25.04,0
15.7750,7.18,0
15.7800,7.18,0
15.7850,7.18,0
15.7900,37.14,0
15.7950,-26.42,0
15.8000,-26.42,0
15.8050,38.24,0
15.8100,38.24,0
15.8150,-14.40,0
15.8200,6.25,0
15.8250,-14.40,0
15.8300,6.25,0
15.8350,19.63,0
15.8400,19.63,0
15.8450,31.62,0
15.8500,-11.20,0
15.8550,-11.20,0
15.8600,-11.20,0
15.8650,18.11,0
15.8700,18.11,0
15.8750,-18.48,0
15.8800,-18.48,0
15.8850,-18.48,0
15.8900,-18.48,0
15.8950,10.61,0
15.9000,-7.44,0
15.9050,4.78,0
15.9100,4.78,0
15.9150,-24.89,0
15.9200,-24.89,0
15.9250,30.58,0
15.9300,30.58,0
15.9350,30.58,0
15.9400,30.58,0
15.9450,5.26,0
15.9500,5.26,0
15.9550,5.26,0
15.9600,-23.01,0
15.9650,-23.01,0
15.9700,-23.01,0
15.9750,-14.49,0
15.9800,-14.49,0
15.9850,2.74,0
15.9900,22.23,0
15.9950,27.32,0
16.0000,22.23,0
16.0050,-29.02,0
16.0100,-29.02,0
16.0150,-11.91,0
16.0200,5.92,0
16.0250,-29.02,0
16.0300,5.92,0
16.0350,5.92,0
16.0400,5.92,0
16.0450,5.92,0
16.0500,-7.42,0
16.0550,-7.42,0
16.0600,8.48,0
16.0650,6.68,0
16.0700,6.68,0
16.0750,29.41,0
16.0800,29.41,0
16.0850,34.67,0
16.0900,34.67,0
16.0950,-13.66,0
16.1000,-13.66,0
16.1050,-13.66,0
16.1100,-13.66,0
16.1150,27.38,0
16.1200,27.38,0
16.1250,-27.32,0
16.1300,-27.32,0
16.1350,-11.24,0
16.1400,-11.24,0
16.1450,3.83,0
16.1500,3.83,0
16.1550,28.33,0
16.1600,28.33,0
16.1650,-29.09,0
16.1700,34.61,0
16.1750,33.67,0
16.1800,4.32,0
16.1850,4.32,0
16.1900,27.48,0
16.1950,27.48,0
16.2000,-31.30,0
16.2050,-31.30,0
16.2100,37.25,0
16.2150,37.25,0
16.2200,-13.99,0
16.2250,-13.99,0
16.2300,30.01,0
16.2350,30.01,0
16.2400,-29.24,0
16.2450,-29.24,0
16.2500,-7.34,0
16.2550,-7.34,0
16.2600,3.45,0
16.2650,3.45,0
16.2700,3.45,0
16.2750,3.45,0
16.2800,3.45,0
16.2850,-26.57,0
16.2900,-26.57,0
16.2950,35.00,0
16.3000,35.00,0
16.3050,3.33,0
16.3100,3.33,0
16.3150,-22.06,0
16.3200,-22.06,0
16.3250,8.33,0
16.3300,8.33,0
16.3350,37.22,0
16.3400,8.33,0
16.3450,42.54,0
16.3500,42.54,0
16.3550,-26.12,0
16.3600,-26.12,0
16.3650,29.82,0
16.3700,7.64,0
16.3750,-22.19,0
16.3800,-22.19,0
16.3850,-22.19,0
16.3900,-24.04,0
16.3950,-24.04,0
16.4000,18.51,0
16.4050,18.51,0
16.4100,-21.31,0
16.4150,-21.31,0
16.4200,-21.31,0
16.4250,38.12,0
16.4300,-21.31,0
16.4350,31.84,0
16.4400,-23.35,0
16.4450,19.92,0
16.4500,10.41,0
16.4550,10.41,0
16.4600,37.26,0
16.4650,37.26,0
16.4700,37.26,0
16.4750,-24.54,0
16.4800,-24.54,0
16.4850,20.16,0
16.4900,10.55,0
16.4950,10.55,0
16.5000,-17.88,0
16.5050,0.99,0
16.5100,-17.88,0
16.5150,-21.97,0
16.5200,-21.97,0
16.5250,17.21,0
16.5300,17.21,0
16.5350,-20.75,0
16.5400,9.57,0
16.5450,32.79,0
16.5500,40.09,0
16.5550,40.09,0
16.5600,40.09,0
16.5650,18.68,0
16.5700,18.68,0
16.5750,10.02,0
16.5800,42.01,0
16.5850,42.01,0
16.5900,-23.46,0
16.5950,-23.46,0
16.6000,-23.46,0
16.6050,-23.46,0
16.6100,-23.46,0
16.6150,9.31,0
16.6200,42.01,0
16.6250,-19.12,0
16.6300,-19.12,0
16.6350,-22.15,0
16.6400,32.79,0
16.6450,18.09,0
16.6500,18.09,0
16.6550,18.09,0
16.6600,18.09,0
16.6650,18.09,0
16.6700,39.43,0
16.6750,39.43,0
16.6800,0.30,0
16.6850,17.29,0
16.6900,9.72,0
16.6950,9.72,0
16.7000,-22.15,0
16.7050,-23.23,0
16.7100,-23.23,0
16.7150,-21.18,0
16.7200,-21.18,0
16.7250,-21.18,0
16.7300,-21.18,0
16.7350,11.81,0
16.7400,-18.93,0
16.7450,-41.35,0
16.7500,-21.61,0
16.7550,-2.87,0
16.7600,16.54,0
16.7650,16.54,0
16.7700,16.54,0
16.7750,16.54,0
16.7800,-19.04,0
16.7850,-19.04,0
16.7900,40.13,0
16.7950,15.11,0
16.8000,15.75,0
16.8050,15.75,0
16.8100,15.75,0
16.8150,13.64,0
16.8200,-20.95,0
16.8250,-20.95,0
16.8300,-20.95,0
16.8350,-20.95,0
16.8400,-23.69,0
16.8450,-23.69,0
16.8500,13.96,0
16.8550,13.96,0
16.8600,-20.76,0
16.8650,-20.76,0
16.8700,42.38,0
16.8750,42.38,0
16.8800,-21.74,0
16.8850,-21.74,0
16.8900,15.44,0
16.8950,-4.17,0
16.9000,-22.45,0
16.9050,-22.45,0
16.9100,40.98,0
16.9150,40.98,0
16.9200,18.97,0
16.9250,18.97,0
16.9300,14.76,0
16.9350,14.76,0
16.9400,14.76,0
16.9450,14.76,0
16.9500,42.33,0
16.9550,42.33,0
16.9600,-20.91,0
16.9650,40.82,0
16.9700,12.40,0
16.9750,-28.45,0
16.9800,-21.92,0
16.9850,-2.81,0
16.9900,-21.92,0
16.9950,-21.92,0
17.0000,-20.68,0
17.0050,-20.68,0
17.0100,-20.68,0
17.0150,37.71,0
17.0200,-20.68,0
17.0250,15.00,0
17.0300,-24.54,0
17.0350,40.55,0
17.0400,40.55,0
17.0450,-22.90,0
17.0500,-22.90,0
17.0550,14.03,0
17.0600,14.03,0
17.0650,13.91,0
17.0700,13.91,0
17.0750,41.47,0
17.0800,12.41,0
17.0850,-20.24,0
17.0900,-20.24,0
17.0950,14.72,0
17.1000,14.72,0
17.1050,14.72,0
17.1100,-17.23,0
17.1150,35.53,0
17.1200,14.72,0
17.1250,-22.65,0
17.1300,-22.65,0
17.1350,-19.05,0
17.1400,-19.05,0
17.1450,29.76,0
17.1500,-36.40,0
17.1550,29.76,0
17.1600,-1.14,0
17.1650,-22.94,0
17.1700,34.46,0
17.1750,34.46,0
17.1800,29.80,0
17.1850,29.80,0
17.1900,-2.40,0
17.1950,-2.40,0
17.2000,-2.40,0
17.2050,-2.40,0
17.2100,35.75,0
17.2150,35.75,0
17.2200,-31.26,0
17.2250,-31.26,0
17.2300,-1.49,0
17.2350,-1.49,0
17.2400,-8.07,0
17.2450,-8.07,0
17.2500,36.24,0
17.2550,36.24,0
17.2600,-29.78,0
17.2650,-29.78,0
17.2700,30.40,0
17.2750,30.40,0
17.2800,-4.85,0
17.2850,-4.85,0
17.2900,-9.91,0
17.2950,34.30,0
17.3000,30.89,0
17.3050,14.18,0
17.3100,-4.78,0
17.3150,-4.78,0
17.3200,-4.78,0
17.3250,-4.78,0
17.3300,36.62,0
17.3350,36.62,0
17.3400,-31.32,0
17.3450,-31.32,0
17.3500,-5.58,0
17.3550,-5.58,0
17.3600,-7.44,0
17.3650,-7.44,0
17.3700,-24.72,0
17.3750,36.04,0
17.3800,36.04,0
17.3850,-30.55,0
17.3900,-30.55,0
17.3950,32.60,0
17.4000,-10.60,0
17.4050,-10.60,0
17.4100,-10.60,0
17.4150,37.24,0
17.4200,37.24,0
17.4250,-4.77,0
17.4300,-33.57,0
17.4350,-1.87,0
17.4400,-1.87,0
17.4450,-1.87,0
17.4500,37.38,0
17.4550,37.38,0
17.4600,37.38,0
17.4650,37.38,0
17.4700,-28.41,0
17.4750,-28.41,0
17.4800,-28.41,0
17.4850,-9.56,0
17.4900,-9.56,0
17.4950,-9.56,0
17.5000,-31.80,0
17.5050,-31.80,0
17.5100,-31.80,0
17.5150,30.15,0
17.5200,30.15,0
17.5250,-8.42,0
17.5300,-8.42,0
17.5350,36.52,0
17.5400,36.52,0
17.5450,-29.55,0
17.5500,-29.55,0
17.5550,30.36,0
17.5600,30.36,0
17.5650,-26.07,0
17.5700,-1.81,0
17.5750,37.29,0
17.5800,37.29,0
17.5850,-30.87,0
17.5900,-30.87,0
17.5950,29.14,0
17.6000,-5.94,0
17.6050,-37.33,0
17.6100,-5.94,0
17.6150,-5.94,0
17.6200,-30.92,0
17.6250,-30.92,0
17.6300,-30.92,0
17.6350,32.41,1
17.6400,32.41,0
17.6450,-10.34,0
17.6500,-10.34,0
17.6550,37.17,0
17.6600,37.17,0
17.6650,37.17,0
17.6700,29.29,0
17.6750,29.29,0
17.6800,-1.82,0
17.6850,-1.82,0
17.6900,39.59,0
17.6950,39.59,0
17.7000,-31.76,0
17.7050,-31.76,0
17.7100,-31.76,0
17.7150,-31.76,0
17.7200,-0.60,0
17.7250,-0.60,0
17.7300,-7.25,0
17.7350,-7.25,0
17.7400,-28.97,0
17.7450,-28.97,0
17.7500,-28.97,0
17.7550,10.92,0
17.7600,29.19,0
17.7650,2.71,0
17.7700,-14.00,0
17.7750,-14.00,0
17.7800,40.19,0
17.7850,40.19,0
17.7900,40.19,0
17.7950,28.17,0
17.8000,1.89,0
17.8050,1.89,0
17.8100,40.62,0
17.8150,40.62,0
17.8200,-32.63,0
17.8250,-32.63,0
17.8300,-32.63,0
17.8350,-32.63,0
17.8400,-32.63,0
17.8450,26.63,0
17.8500,-11.73,0
17.8550,-11.73,0
17.8600,-30.30,0
17.8650,-30.30,0
17.8700,27.78,0
17.8750,29.74,0
17.8800,27.78,0
17.8850,27.78,0
17.8900,-9.06,0
17.8950,-9.06,0
17.9000,38.72,0
17.9050,38.72,0
17.9100,9.95,0
17.9150,-32.66,0
17.9200,29.72,0
17.9250,29.72,0
17.9300,-3.74,0
17.9350,-3.74,0
17.9400,39.27,0
17.9450,39.27,0
17.9500,21.31,0
17.9550,10.75,0
17.9600,10.75,0
17.9650,-27.10,0
17.9700,-27.10,0
17.9750,-19.15,0
17.9800,-19.15,0
17.9850,-19.15,0
17.9900,41.27,0
17.9950,-19.15,0
18.0000,-19.15,0
18.0050,-19.15,0
18.0100,40.70,0
18.0150,29.14,0
18.0200,7.81,0
18.0250,7.81,0
18.0300,21.18,0
18.0350,21.18,0
18.0400,21.18,0
18.0450,21.18,0
18.0500,41.38,0
18.0550,41.38,0
18.0600,-19.90,0
18.0650,38.77,0
18.0700,23.18,0
18.0750,41.38,0
18.0800,23.18,0
18.0850,-27.13,0
18.0900,-27.13,0
18.0950,-27.13,0
18.1000,-16.29,0
18.1050,-16.29,0
18.1100,-16.29,0
18.1150,9.75,0
18.1200,9.75,0
18.1250,-30.56,0
18.1300,-26.11,0
18.1350,39.68,0
18.1400,41.38,0
18.1450,-19.82,0
18.1500,-19.82,0
18.1550,23.13,0
18.1600,-2.89,0
18.1650,22.43,0
18.1700,42.60,0
18.1750,42.60,0
18.1800,42.60,0
18.1850,42.60,0
18.1900,-20.37,0
18.1950,-20.37,0
18.2000,22.70,0
18.2050,22.70,0
18.2100,-29.44,0
18.2150,-29.44,0
18.2200,-19.03,0
18.2250,-19.03,0
18.2300,11.93,0
18.2350,11.93,0
18.2400,-25.53,0
18.2450,-25.53,0
18.2500,39.80,0
18.2550,39.80,0
18.2600,39.80,0
18.2650,39.80,0
18.2700,10.15,0
18.2750,-25.53,0
18.2800,10.15,0
18.2850,23.63,0
18.2900,23.63,0
18.2950,39.33,0
18.3000,-18.81,0
18.3050,39.33,0
18.3100,-18.81,0
18.3150,12.51,0
18.3200,12.51,0
18.3250,12.51,0
18.3300,12.51,0
18.3350,-28.89,0
18.3400,-28.89,0
18.3450,-17.48,0
18.3500,-17.48,0
18.3550,10.01,0
18.3600,19.72,0
18.3650,19.72,0
18.3700,37.70,0
18.3750,37.70,0
18.3800,37.70,0
18.3850,37.70,0
18.3900,37.70,0
18.3950,13.78,0
18.4000,13.78,0
18.4050,17.51,0
18.4100,17.51,0
18.4150,37.19,0
18.4200,37.19,0
18.4250,-31.05,0
18.4300,-17.00,0
18.4350,-17.00,0
18.4400,-17.00,0
18.4450,19.66,0
18.4500,26.72,0
18.4550,-26.64,0
18.4600,-19.70,0
18.4650,-19.70,0
18.4700,-19.70,0
18.4750,10.61,0
18.4800,10.61,0
18.4850,10.61,0
18.4900,10.61,0
18.4950,-28.54,0
18.5000,39.79,0
18.5050,41.81,0
18.5100,41.81,0
18.5150,9.84,0
18.5200,9.84,0
18.5250,21.46,0
18.5300,-24.78,0
18.5350,-24.78,0
18.5400,40.98,0
18.5450,40.98,0
18.5500,40.98,0
18.5550,-14.98,0
18.5600,-14.98,0
18.5650,21.82,0
18.5700,21.82,0
18.5750,-31.32,0
18.5800,-31.32,0
18.5850,-31.32,0
18.5900,-31.32,0
18.5950,-31.32,0
18.6000,22.71,0
18.6050,22.71,0
18.6100,-10.95,0
18.6150,-31.38,0
18.6200,-11.18,0
18.6250,40.70,0
18.6300,40.70,0
18.6350,8.38,0
18.6400,8.38,0
18.6450,22.28,0
18.6500,22.28,0
18.6550,22.28,0
18.6600,39.82,0
18.6650,39.82,0
18.6700,39.82,0
18.6750,-18.05,0
18.6800,-18.05,0
18.6850,19.69,0
18.6900,19.69,0
18.6950,-29.28,0
18.7000,39.81,0
18.7050,39.81,0
18.7100,-18.05,0
18.7150,-18.05,0
18.7200,-18.05,0
18.7250,8.19,0
18.7300,8.19,0
18.7350,-30.95,0
18.7400,-30.95,0
18.7450,38.28,0
18.7500,-18.65,0
18.7550,-18.65,0
18.7600,-18.65,0
18.7650,9.42,0
18.7700,25.47,0
18.7750,25.47,0
18.7800,-2.60,0
18.7850,-2.60,0
18.7900,-2.60,0
18.7950,36.82,0
18.8000,36.82,0
18.8050,-28.68,0
18.8100,-28.68,0
18.8150,-28.68,0
18.8200,3.29,0
18.8250,3.29,0
18.8300,3.29,0
18.8350,-13.93,0
18.8400,-13.93,0
18.8450,-26.17,0
18.8500,-26.17,0
18.8550,-26.17,0
18.8600,-26.17,0
18.8650,-26.17,0
18.8700,-13.93,0
18.8750,-11.69,0
18.8800,41.44,0
18.8850,41.44,0
18.8900,25.20,0
18.8950,25.20,0
18.9000,1.59,0
18.9050,1.59,0
18.9100,1.59,0
18.9150,1.59,0
18.9200,37.33,0
18.9250,37.33,0
18.9300,21.05,0
18.9350,-26.22,0
18.9400,3.19,0
18.9450,3.19,0
18.9500,-12.82,0
18.9550,-12.82,0
18.9600,41.58,0
18.9650,41.58,0
18.9700,1.59,0
18.9750,-27.23,0
18.9800,29.60,0
18.9850,29.60,0
18.9900,-10.45,0
18.9950,11.54,0
19.0000,37.53,0
19.0050,37.53,0
19.0100,25.53,0
19.0150,25.53,0
19.0200,4.54,0
19.0250,4.54,0
19.0300,4.54,0
19.0350,4.54,0
19.0400,39.42,0
19.0450,39.05,0
19.0500,-24.77,0
19.0550,-24.77,0
19.0600,1.37,0
19.0650,1.37,0
19.0700,-10.19,0
19.0750,-10.19,0
19.0800,38.78,0
19.0850,38.78,0
19.0900,-29.68,0
19.0950,8.44,0
19.1000,26.36,0
19.1050,26.36,0
19.1100,26.36,0
19.1150,26.36,0
19.1200,-15.38,0
19.1250,-15.38,0
19.1300,24.95,0
19.1350,24.95,0
19.1400,4.82,0
19.1450,4.82,0
19.1500,4.82,0
19.1550,4.82,0
19.1600,4.82,0
19.1650,4.82,0
19.1700,4.82,0
19.1750,41.64,0
19.1800,-26.76,0
19.1850,4.14,0
19.1900,4.14,0
19.1950,4.14,0
19.2000,4.14,0
19.2050,4.14,0
19.2100,4.14,0
19.2150,-24.91,0
19.2200,-24.91,0
19.2250,27.97,0
19.2300,27.97,0
19.2350,-14.44,0
19.2400,-14.44,0
19.2450,41.12,0
19.2500,41.12,0
19.2550,41.12,0
19.2600,26.27,0
19.2650,26.27,0
19.2700,4.19,0
19.2750,4.19,0
19.2800,39.54,0
19.2850,8.45,0
19.2900,-25.48,0
19.2950,-25.48,0
19.3000,-25.48,0
19.3050,-25.48,0
19.3100,-25.48,0
19.3150,-25.48,0
19.3200,38.49,0
19.3250,38.49,0
19.3300,-25.98,0
19.3350,-25.98,0
19.3400,24.17,0
19.3450,24.17,0
19.3500,-13.48,0
19.3550,-31.38,0
19.3600,36.92,0
19.3650,36.92,0
19.3700,36.92,0
19.3750,36.92,0
19.3800,-26.59,0
19.3850,-26.56,0
19.3900,4.85,0
19.3950,4.85,0
19.4000,4.85,0
19.4050,38.13,0
19.4100,38.13,0
19.4150,-15.59,0
19.4200,23.70,0
19.4250,23.70,0
19.4300,23.70,0
19.4350,3.51,0
19.4400,3.51,0
19.4450,-42.78,0
19.4500,-13.65,0
19.4550,-27.14,0
19.4600,28.57,0
19.4650,28.57,0
19.4700,3.32,0
19.4750,3.32,0
19.4800,3.32,0
19.4850,-15.94,0
19.4900,-15.94,0
19.4950,35.94,0
19.5000,35.94,0
19.5050,20.88,0
19.5100,20.88,0
19.5150,4.82,0
19.5200,4.82,0
19.5250,-29.41,0
19.5300,-15.64,0
19.5350,38.55,0
19.5400,-31.83,0
19.5450,-29.12,0
19.5500,5.89,0
19.5550,5.89,0
19.5600,-8.93,0
19.5650,-8.93,0
19.5700,-8.93,0
19.5750,39.65,0
19.5800,39.65,0
19.5850,-27.64,0
19.5900,-27.64,0
19.5950,-29.27,0
19.6000,-29.27,0
19.6050,4.68,0
19.6100,41.45,0
19.6150,38.37,0
19.6200,23.91,0
19.6250,23.91,0
19.6300,-30.83,0
19.6350,-30.83,0
19.6400,38.55,0
19.6450,37.31,0
19.6500,-13.18,0
19.6550,5.20,0
19.6600,5.20,0
19.6650,5.20,0
19.6700,-25.66,0
19.6750,-25.66,0
19.6800,-25.66,0
19.6850,-14.01,0
19.6900,-14.01,0
19.6950,6.72,0
19.7000,6.72,0
19.7050,-30.58,0
19.7100,-30.58,0
19.7150,38.81,0
19.7200,38.81,0
19.7250,38.81,0
19.7300,25.47,0
19.7350,3.44,0
19.7400,-14.94,0
19.7450,23.57,0
19.7500,23.57,0
19.7550,37.63,0
19.7600,37.63,0
19.7650,-14.97,0
19.7700,-14.97,0
19.7750,-14.97,0
19.7800,5.49,0
19.7850,5.49,0
19.7900,26.06,0
19.7950,26.06,0
19.8000,-29.38,0
19.8050,-29.38,0
19.8100,-14.54,0
19.8150,8.17,0
19.8200,8.17,0
19.8250,8.17,0
19.8300,22.32,0
19.8350,-5.79,0
19.8400,37.25,0
19.8450,37.25,0
19.8500,37.25,0
19.8550,4.29,0
19.8600,4.29,0
19.8650,25.78,0
19.8700,25.78,0
19.8750,-26.19,0
19.8800,-26.19,0
19.8850,-10.96,0
19.8900,-10.96,0
19.8950,-10.96,0
19.9000,-10.96,0
19.9050,-10.96,0
19.9100,25.13,0
19.9150,-15.10,0
19.9200,-27.67,0
19.9250,-12.95,0
19.9300,-26.19,0
19.9350,-12.95,0
19.9400,-27.67,0
19.9450,23.91,0
19.9500,7.17,0
19.9550,-31.10,0
19.9600,-31.10,0
19.9650,38.37,0
19.9700,38.37,0
19.9750,38.37,0
19.9800,6.26,0
19.9850,25.75,0
19.9900,24.12,0
19.9950,24.12,0
20.0000,-28.90,0
20.0050,-28.90,0
20.0100,-13.26,0
20.0150,-12.65,0
20.0200,-11.31,0
20.0250,-11.31,0
20.0300,-11.31,0
20.0350,26.38,0
20.0400,26.38,0
20.0450,41.77,0
20.0500,-14.88,0
20.0550,-14.88,0
20.0600,-14.88,0
20.0650,-14.88,0
20.0700,-14.88,0
20.0750,-26.77,0
20.0800,-26.77,0
20.0850,36.97,0
20.0900,36.97,0
20.0950,5.14,0
20.1000,5.14,0
20.1050,39.21,0
20.1100,25.03,0
20.1150,25.03,0
20.1200,25.03,0
20.1250,36.15,0
20.1300,36.15,0
20.1350,-11.57,0
20.1400,-20.11,0
20.1450,-11.43,0
20.1500,27.54,0
20.1550,-26.23,0
20.1600,-26.23,0
20.1650,-26.23,0
20.1700,36.97,0
20.1750,-26.23,0
20.1800,-26.23,0
20.1850,24.38,0
20.1900,24.38,0
20.1950,5.13,0
20.2000,-30.84,0
20.2050,-30.84,0
20.2100,-30.84,0
20.2150,39.38,0
20.2200,39.38,0
20.2250,39.38,0
20.2300,23.80,0
20.2350,23.80,0
20.2400,23.80,0
20.2450,23.80,0
20.2500,35.92,0
20.2550,35.92,0
20.2600,11.39,0
20.2650,-10.22,0
20.2700,26.84,0
20.2750,-39.82,0
20.2800,26.84,0
20.2850,-26.22,0
20.2900,4.75,0
20.2950,-27.87,0
20.3000,-14.52,0
20.3050,-14.52,0
20.3100,9.62,0
20.3150,9.62,0
20.3200,-27.77,0
20.3250,-27.77,0
20.3300,35.05,0
20.3350,35.05,0
20.3400,7.50,0
20.3450,7.50,0
20.3500,23.61,0
20.3550,23.61,0
20.3600,23.61,0
20.3650,23.61,0
20.3700,23.61,0
20.3750,23.61,0
20.3800,-12.54,0
20.3850,-12.54,0
20.3900,4.21,0
20.3950,3.26,0
20.4000,22.69,0
20.4050,22.69,0
20.4100,-15.46,0
20.4150,-15.46,0
20.4200,-15.46,0
20.4250,-15.46,0
20.4300,-22.88,0
20.4350,-22.88,0
20.4400,23.15,0
20.4450,23.15,0
20.4500,-12.89,0
20.4550,-12.89,0
20.4600,41.94,0
20.4650,41.94,0
20.4700,41.94,0
20.4750,41.94,0
20.4800,41.94,0
20.4850,45.56,0
20.4900,-15.40,0
20.4950,-15.40,0
20.5000,35.64,0
20.5050,14.17,0
20.5100,-26.10,0
20.5150,-26.10,0
20.5200,24.39,0
20.5250,24.39,0
20.5300,6.35,0
20.5350,6.35,0
20.5400,-16.27,0
20.5450,-16.27,0
20.5500,-24.36,0
20.5550,-24.36,0
20.5600,23.06,0
20.5650,23.06,0
20.5700,22.15,0
20.5750,24.93,0
20.5800,37.20,0
20.5850,37.20,0
20.5900,17.19,0
20.5950,37.20,0
20.6000,-25.27,0
20.6050,20.93,0
20.6100,6.81,0
20.6150,6.81,0
20.6200,39.68,0
20.6250,39.68,0
20.6300,39.68,0
20.6350,-26.90,0
20.6400,26.23,0
20.6450,26.23,0
20.6500,8.06,0
20.6550,8.06,0
20.6600,-15.72,0
20.6650,-15.72,0
20.6700,-15.72,0
20.6750,-28.39,0
20.6800,-28.39,0
20.6850,25.62,0
20.6900,25.62,0
20.6950,-17.73,0
20.7000,39.42,0
20.7050,39.42,0
20.7100,-17.73,0
20.7150,39.42,0
20.7200,-25.36,0
20.7250,-26.31,0
20.7300,-26.31,0
20.7350,6.59,0
20.7400,6.59,0
20.7450,38.12,0
20.7500,38.12,0
20.7550,-27.12,0
20.7600,-27.12,0
20.7650,-26.73,0
20.7700,-27.12,0
20.7750,4.72,0
20.7800,-12.32,0
20.7850,-12.32,0
20.7900,44.57,0
20.7950,39.26,0
20.8000,-27.33,0
20.8050,-27.33,0
20.8100,22.85,0
20.8150,22.85,0
20.8200,-14.33,0
20.8250,-14.33,0
20.8300,43.72,0
20.8350,43.72,0
20.8400,22.15,0
20.8450,22.15,0
20.8500,5.10,0
20.8550,5.10,0
20.8600,5.10,0
20.8650,5.10,0
20.8700,38.50,0
20.8750,38.50,0
20.8800,38.50,0
20.8850,-25.05,0
20.8900,5.20,0
20.8950,5.20,0
20.9000,-30.50,0
20.9050,-15.80,0
20.9100,38.15,0
20.9150,38.15,0
20.9200,38.15,0
20.9250,-26.01,0
20.9300,24.64,0
20.9350,-26.01,0
20.9400,2.44,0
20.9450,2.44,0
20.9500,2.44,0
20.9550,38.22,0
20.9600,-25.40,0
20.9650,-24.77,0
20.9700,-24.77,0
20.9750,21.30,0
20.9800,21.30,0
20.9850,7.29,0
20.9900,7.29,0
20.9950,41.09,0
21.0000,41.09,0
21.0050,-26.36,0
21.0100,-26.36,0
21.0150,-26.36,0
21.0200,-26.36,0
21.0250,-26.36,0
21.0300,-26.36,0
21.0350,38.51,0
21.0400,38.51,0
21.0450,-12.86,0
21.0500,-24.29,0
21.0550,23.35,0
21.0600,-13.05,0
21.0650,-14.08,0
21.0700,-14.08,0
21.0750,40.62,0
21.0800,40.62,0
21.0850,-16.62,0
21.0900,40.62,0
21.0950,22.82,0
21.1000,8.43,0
21.1050,8.43,0
21.1100,8.43,0
21.1150,8.43,0
21.1200,-19.87,0
21.1250,-19.87,0
21.1300,-26.31,0
21.1350,24.32,0
21.1400,6.31,0
21.1450,6.31,0
21.1500,6.31,0
21.1550,40.62,0
21.1600,-26.31,0
21.1650,-28.49,0
21.1700,-28.49,0
21.1750,-16.82,0
21.1800,24.86,0
21.1850,4.51,0
21.1900,-17.45,0
21.1950,-17.45,0
21.2000,38.27,0
21.2050,38.27,0
21.2100,38.27,0
21.2150,25.77,0
21.2200,25.77,0
21.2250,-26.47,0
21.2300,-26.47,0
21.2350,-14.93,0
21.2400,-14.93,0
21.2450,-0.95,0
21.2500,-0.95,0
21.2550,27.18,0
21.2600,27.18,0
21.2650,3.62,0
21.2700,27.18,0
21.2750,-16.38,0
21.2800,-16.38,0
21.2850,4.34,0
21.2900,4.34,0
21.2950,29.48,0
21.3000,29.48,0
21.3050,53.25,0
21.3100,36.79,0
21.3150,36.79,0
21.3200,5.87,0
21.3250,5.87,0
21.3300,5.87,0
21.3350,24.09,0
21.3400,-27.79,0
21.3450,-27.79,0
21.3500,-9.29,0
21.3550,-9.29,0
21.3600,-9.29,0
21.3650,-9.29,0
21.3700,-9.29,0
21.3750,-9.29,0
21.3800,-9.29,0
21.3850,-9.29,0
21.3900,5.38,0
21.3950,5.38,0
21.4000,-11.24,0
21.4050,-11.24,0
21.4100,-16.36,0
21.4150,8.41,0
21.4200,-31.05,0
21.4250,-31.05,0
21.4300,-31.05,0
21.4350,37.42,0
21.4400,37.42,0
21.4450,5.37,0
21.4500,24.09,0
21.4550,5.37,0
21.4600,5.37,0
21.4650,5.37,0
21.4700,5.37,0
21.4750,29.53,0
21.4800,5.37,0
21.4850,31.99,0
21.4900,39.59,0
21.4950,27.76,0
21.5000,23.40,0
21.5050,-26.32,0
21.5100,35.75,0
21.5150,35.75,0
21.5200,-16.55,0
21.5250,-16.55,0
21.5300,5.23,0
21.5350,5.23,0
21.5400,-29.11,0
21.5450,-29.11,0
21.5500,36.94,0
21.5550,36.94,0
21.5600,36.94,0
21.5650,36.94,0
21.5700,45.37,0
21.5750,36.94,0
21.5800,-29.28,0
21.5850,-29.28,0
21.5900,37.02,0
21.5950,37.02,0
21.6000,-12.01,0
21.6050,-12.01,0
21.6100,25.26,0
21.6150,25.26,0
21.6200,-29.21,0
21.6250,-29.21,0
21.6300,-29.21,0
21.6350,36.56,0
21.6400,-13.00,0
21.6450,-13.00,0
21.6500,-13.00,0
21.6550,5.60,0
21.6600,5.60,0
21.6650,-25.18,0
21.6700,-13.00,0
21.6750,22.40,0
21.6800,36.85,0
21.6850,6.54,0
21.6900,38.00,0
21.6950,24.65,0
21.7000,-14.89,0
21.7050,24.65,0
21.7100,24.65,0
21.7150,33.07,0
21.7200,33.07,0
21.7250,-12.21,0
21.7300,-12.21,0
21.7350,-12.21,0
21.7400,-12.21,0
21.7450,-12.21,0
21.7500,24.66,0
21.7550,-12.21,0
21.7600,-12.21,0
21.7650,4.23,0
21.7700,21.87,0
21.7750,7.62,0
21.7800,7.62,0
21.7850,-28.60,0
21.7900,-28.60,0
21.7950,-28.60,0
21.8000,-28.60,0
21.8050,37.71,0
21.8100,6.28,0
21.8150,23.12,0
21.8200,23.12,0
21.8250,23.12,0
21.8300,23.12,0
21.8350,55.74,0
21.8400,23.12,0
21.8450,36.56,0
21.8500,36.56,0
21.8550,22.12,0
21.8600,22.12,0
21.8650,22.12,0
21.8700,-27.23,0
21.8750,-27.23,0
21.8800,-27.23,0
21.8850,-10.79,0
21.8900,-10.79,0
21.8950,5.23,0
21.9000,5.23,0
21.9050,-28.77,0
21.9100,-28.77,0
21.9150,-28.77,0
21.9200,-28.77,0
21.9250,-28.77,0
21.9300,2.92,0
21.9350,2.92,0
21.9400,25.76,0
21.9450,25.76,0
21.9500,33.30,0
21.9550,33.30,0
21.9600,6.84,0
21.9650,-11.48,0
21.9700,-11.48,0
21.9750,3.52,0
21.9800,-6.78,0
21.9850,24.53,0
21.9900,-29.51,0
21.9950,-12.54,0
22.0000,-29.51,0
22.0050,-18.03,0
22.0100,4.93,0
22.0150,4.93,0
22.0200,4.93,0
22.0250,-25.15,0
22.0300,-7.29,0
22.0350,9.74,0
22.0400,9.74,0
22.0450,39.81,0
22.0500,-13.92,0
22.0550,33.27,0
22.0600,-24.85,0
22.0650,18.97,0
22.0700,18.97,0
22.0750,18.97,0
22.0800,-0.20,0
22.0850,3.09,0
22.0900,3.09,0
22.0950,-25.10,0
22.1000,-25.10,0
22.1050,-25.10,0
22.1100,-25.10,0
22.1150,5.02,0
22.1200,5.02,0
22.1250,-11.03,0
22.1300,-11.03,0
22.1350,-26.48,0
22.1400,-26.48,0
22.1450,23.35,0
22.1500,36.60,0
22.1550,23.35,0
22.1600,-13.89,0
22.1650,39.63,0
22.1700,35.67,0
22.1750,35.67,0
22.1800,35.67,0
22.1850,35.67,0
22.1900,5.35,0
22.1950,-25.06,0
22.2000,-25.06,0
22.2050,39.03,0
22.2100,39.03,0
22.2150,39.03,0
22.2200,39.03,0
22.2250,-21.18,0
22.2300,-21.18,0
22.2350,6.16,0
22.2400,3.05,0
22.2450,3.05,0
22.2500,3.05,0
22.2550,-14.38,0
22.2600,-14.38,0
22.2650,26.78,0
22.2700,26.78,0
22.2750,26.78,0
22.2800,26.78,0
22.2850,-16.59,0
22.2900,-16.59,0
22.2950,41.52,0
22.3000,41.52,0
22.3050,-25.02,0
22.3100,-25.02,0
22.3150,24.19,0
22.3200,-11.80,0
22.3250,6.11,0
22.3300,6.11,0
22.3350,37.61,0
22.3400,-21.32,0
22.3450,-21.32,0
22.3500,-21.32,0
22.3550,24.11,0
22.3600,24.11,0
22.3650,-14.15,0
22.3700,4.81,0
22.3750,4.81,0
22.3800,4.81,0
22.3850,-25.21,0
22.3900,-25.21,0
22.3950,26.92,0
22.4000,4.47,0
22.4050,4.47,0
22.4100,-14.24,0
22.4150,-14.24,0
22.4200,37.56,0
22.4250,37.56,0
22.4300,23.61,0
22.4350,23.61,0
22.4400,2.96,0
22.4450,2.96,0
22.4500,2.96,0
22.4550,36.55,0
22.4600,2.96,0
22.4650,-13.92,0
22.4700,-13.92,0
22.4750,3.49,0
22.4800,3.49,0
22.4850,3.49,0
22.4900,-10.90,0
22.4950,-13.92,0
22.5000,-25.38,0
22.5050,23.61,0
22.5100,21.80,0
22.5150,21.80,0
22.5200,6.47,0
22.5250,6.47,0
22.5300,-25.38,0
22.5350,-13.09,0
22.5400,36.44,0
22.5450,36.44,0
22.5500,24.27,0
22.5550,-25.35,0
22.5600,5.68,0
22.5650,5.68,0
22.5700,38.80,0
22.5750,-17.44,0
22.5800,-25.46,0
22.5850,-25.46,0
22.5900,-25.46,0
22.5950,-25.46,0
22.6000,4.05,0
22.6050,4.05,0
22.6100,-15.06,0
22.6150,-15.06,0
22.6200,-25.57,0
22.6250,-25.57,0
22.6300,-25.57,0
22.6350,-25.57,1
22.6400,-25.57,0
22.6450,25.36,0
22.6500,-14.68,0
22.6550,-14.68,0
22.6600,37.70,0
22.6650,37.70,0
22.6700,24.91,0
22.6750,24.91,0
22.6800,12.12,0
22.6850,6.71,0
22.6900,2.97,0
22.6950,39.88,0
22.7000,39.88,0
22.7050,37.70,0
22.7100,-25.36,0
22.7150,-25.36,0
22.7200,-25.36,0
22.7250,4.12,0
22.7300,-15.08,0
22.7350,-15.08,0
22.7400,-24.83,0
22.7450,-24.83,0
22.7500,23.36,0
22.7550,23.36,0
22.7600,23.60,0
22.7650,2.01,0
22.7700,2.01,0
22.7750,-13.61,0
22.7800,-13.61,0
22.7850,-24.35,0
22.7900,38.59,0
22.7950,23.01,0
22.8000,23.01,0
22.8050,3.00,0
22.8100,3.00,0
22.8150,3.00,0
22.8200,-28.08,0
22.8250,3.00,0
22.8300,3.00,0
22.8350,21.79,0
22.8400,21.79,0
22.8450,2.17,0
22.8500,2.17,0
22.8550,-10.78,0
22.8600,-10.78,0
22.8650,6.44,0
22.8700,6.44,0
22.8750,-10.67,0
22.8800,24.66,0
22.8850,7.20,0
22.8900,-27.12,0
22.8950,35.78,0
22.9000,35.78,0
22.9050,35.78,0
22.9100,35.78,0
22.9150,21.38,0
22.9200,21.38,0
22.9250,22.99,0
22.9300,34.47,0
22.9350,-13.00,0
22.9400,-13.00,0
22.9450,4.85,0
22.9500,4.85,0
22.9550,24.99,0
