timestamp,ch1 (µV),event
14.2750,4951.75,0
14.2800,4951.75,0
14.2850,4928.38,0
14.2900,4951.75,0
14.2950,4913.64,0
14.3000,4918.77,0
14.3050,4923.87,0
14.3100,4929.64,0
14.3150,4929.64,0
14.3200,4909.60,0
14.3250,5007.16,0
14.3300,4909.98,0
14.3350,4909.98,0
14.3400,4931.94,0
14.3450,4931.94,0
14.3500,4871.24,0
14.3550,4871.24,0
14.3600,4867.75,0
14.3650,4867.75,0
14.3700,4872.81,0
14.3750,4872.81,0
14.3800,4871.84,0
14.3850,4871.84,0
14.3900,4919.60,0
14.3950,4867.75,0
14.4000,4919.60,0
14.4050,4919.60,0
14.4100,4903.38,0
14.4150,4992.18,0
14.4200,4912.56,0
14.4250,4912.56,0
14.4300,4901.14,0
14.4350,4901.14,0
14.4400,5013.36,0
14.4450,4891.87,0
14.4500,5013.36,0
14.4550,5013.36,0
14.4600,3752.47,0
14.4650,3752.47,0
14.4700,3959.85,0
14.4750,3959.85,0
14.4800,3960.20,0
14.4850,3960.20,0
14.4900,3938.37,0
14.4950,3938.37,0
14.5000,3938.37,0
14.5050,5013.36,0
14.5100,3973.57,0
14.5150,3914.54,0
14.5200,3950.61,0
14.5250,3950.61,0
14.5300,3945.56,0
14.5350,3969.53,0
14.5400,4961.10,0
14.5450,3969.53,0
14.5500,3969.53,0
14.5550,3969.53,0
14.5600,3969.53,0
14.5650,3969.53,0
14.5700,3945.59,0
14.5750,3945.59,0
14.5800,3977.61,0
14.5850,3977.61,0
14.5900,3937.56,0
14.5950,3937.56,0
14.6000,3964.44,0
14.6050,4045.16,0
14.6100,4045.16,0
14.6150,4045.16,0
14.6200,3999.28,0
14.6250,3989.16,0
14.6300,3989.16,0
14.6350,3929.80,0
14.6400,3917.66,0
14.6450,3387.95,0
14.6500,-154.34,0
14.6550,-154.34,0
14.6600,-154.34,0
14.6650,-154.34,0
14.6700,97.83,0
14.6750,97.83,0
14.6800,265.04,0
14.6850,-143.58,0
14.6900,-143.58,0
14.6950,-143.58,0
14.7000,-269.48,0
14.7050,3946.30,0
14.7100,3888.76,0
14.7150,-521.99,0
14.7200,-560.63,0
14.7250,-560.63,0
14.7300,-128.47,0
14.7350,-128.47,0
14.7400,-372.44,0
14.7450,-463.37,0
14.7500,4057.40,0
14.7550,-156.53,0
14.7600,394.54,0
14.7650,-156.53,0
14.7700,256.41,0
14.7750,256.41,0
14.7800,-357.79,0
14.7850,-357.79,0
14.7900,-290.97,0
14.7950,-290.97,0
14.8000,-273.89,0
14.8050,-273.89,0
14.8100,-730.07,0
14.8150,-730.07,0
14.8200,-263.00,0
14.8250,-263.00,0
14.8300,-263.00,0
14.8350,-263.00,0
14.8400,-422.17,0
14.8450,-357.16,0
14.8500,-870.71,0
14.8550,-870.71,0
14.8600,-1276.02,0
14.8650,-1276.02,0
14.8700,-1650.37,0
14.8750,-1650.37,0
14.8800,-1650.37,0
14.8850,-137.58,0
14.8900,-1650.37,0
14.8950,-1763.90,0
14.9000,-1763.90,0
14.9050,-1476.32,0
14.9100,-1476.32,0
14.9150,-1262.92,0
14.9200,-725.11,0
14.9250,-1262.92,0
14.9300,-1262.92,0
14.9350,-1262.92,0
14.9400,-544.18,0
14.9450,-544.18,0
14.9500,-305.37,0
14.9550,297.33,0
14.9600,-1763.90,0
14.9650,-364.30,0
14.9700,54.53,0
14.9750,54.53,0
14.9800,-483.06,0
14.9850,-483.06,0
14.9900,-483.06,0
14.9950,-483.06,0
15.0000,-594.09,0
15.0050,93.66,0
15.0100,93.66,0
15.0150,93.66,0
15.0200,211.77,0
15.0250,211.77,0
15.0300,211.77,0
15.0350,-544.18,0
15.0400,-1234.91,0
15.0450,-201.67,0
15.0500,-1258.82,0
15.0550,-857.03,0
15.0600,-857.03,0
15.0650,-857.03,0
15.0700,-1364.17,0
15.0750,93.66,0
15.0800,-666.60,0
15.0850,-666.60,0
15.0900,-88.65,0
15.0950,-88.65,0
15.1000,-88.65,0
15.1050,-88.65,0
15.1100,389.15,0
15.1150,-392.31,0
15.1200,267.98,0
15.1250,267.98,0
15.1300,16.58,0
15.1350,16.58,0
15.1400,36.48,0
15.1450,36.48,0
15.1500,-629.06,0
15.1550,36.48,0
15.1600,36.48,0
15.1650,-31.30,0
15.1700,-40.08,0
15.1750,-40.08,0
15.1800,-88.10,0
15.1850,-88.10,0
15.1900,-101.78,0
15.1950,-76.56,0
15.2000,-76.56,0
15.2050,-39.64,0
15.2100,89.48,0
15.2150,89.48,0
15.2200,209.79,0
15.2250,209.79,0
15.2300,36.48,0
15.2350,209.79,0
15.2400,183.45,0
15.2450,183.45,0
15.2500,93.87,0
15.2550,93.87,0
15.2600,93.87,0
15.2650,93.87,0
15.2700,128.23,0
15.2750,50.76,0
15.2800,-59.32,0
15.2850,80.63,0
15.2900,28.10,0
15.2950,-88.11,0
15.3000,-7.97,0
15.3050,-7.97,0
15.3100,68.84,0
15.3150,42.71,0
15.3200,-28.56,0
15.3250,-22.72,0
15.3300,-146.29,0
15.3350,-146.29,0
15.3400,-203.57,0
15.3450,-203.57,0
15.3500,-21.65,0
15.3550,216.76,0
15.3600,-21.65,0
15.3650,-21.65,0
15.3700,72.55,0
15.3750,72.55,0
15.3800,-175.93,0
15.3850,-175.93,0
15.3900,-57.39,0
15.3950,-57.39,0
15.4000,-95.90,0
15.4050,-95.90,0
15.4100,-124.79,0
15.4150,-124.79,0
15.4200,-124.79,0
15.4250,-124.79,0
15.4300,18.21,0
15.4350,18.21,0
15.4400,50.37,0
15.4450,50.37,0
15.4500,32.22,0
15.4550,95.96,0
15.4600,95.96,0
15.4650,95.96,0
15.4700,69.22,0
15.4750,55.80,0
15.4800,55.80,0
15.4850,-67.59,0
15.4900,-67.59,0
15.4950,-67.59,0
15.5000,-103.54,0
15.5050,-103.54,0
15.5100,-22.82,0
15.5150,103.86,0
15.5200,103.86,0
15.5250,69.22,0
15.5300,163.12,0
15.5350,163.12,0
15.5400,102.31,0
15.5450,264.58,0
15.5500,166.70,0
15.5550,166.70,0
15.5600,146.72,0
15.5650,146.72,0
15.5700,425.17,0
15.5750,425.17,0
15.5800,425.17,0
15.5850,425.17,0
15.5900,1322.46,0
15.5950,1322.46,0
15.6000,1188.48,0
15.6050,1188.48,0
15.6100,1188.48,0
15.6150,1188.48,0
15.6200,932.30,0
15.6250,-362.22,0
15.6300,1269.00,0
15.6350,1269.00,0
15.6400,1188.48,0
15.6450,899.27,0
15.6500,899.27,0
15.6550,1141.12,0
15.6600,1141.12,0
15.6650,1141.12,0
15.6700,713.87,0
15.6750,422.51,0
15.6800,422.51,0
15.6850,422.51,0
15.6900,422.51,0
15.6950,422.51,0
15.7000,353.10,0
15.7050,353.10,0
15.7100,497.49,0
15.7150,497.49,0
15.7200,481.10,0
15.7250,481.10,0
15.7300,1012.41,0
15.7350,514.93,0
15.7400,264.78,0
15.7450,264.78,0
15.7500,264.78,0
15.7550,210.47,0
15.7600,74.65,0
15.7650,90.09,0
15.7700,90.09,0
15.7750,93.87,0
15.7800,93.87,0
15.7850,67.05,0
15.7900,67.05,0
15.7950,67.05,0
15.8000,67.05,0
15.8050,210.48,0
15.8100,67.05,0
15.8150,-126.50,0
15.8200,-126.50,0
15.8250,-128.86,0
15.8300,-128.86,0
15.8350,-130.79,0
15.8400,435.31,0
15.8450,-130.79,0
15.8500,-130.79,0
15.8550,-130.79,0
15.8600,-130.79,0
15.8650,-128.86,0
15.8700,-24.39,0
15.8750,-74.09,0
15.8800,-74.09,0
15.8850,-18.53,0
15.8900,-18.53,0
15.8950,-18.53,0
15.9000,-247.50,0
15.9050,-247.50,0
15.9100,-145.80,0
15.9150,-145.80,0
15.9200,-384.75,0
15.9250,-384.75,0
15.9300,-384.75,0
15.9350,-3.54,0
15.9400,-3.54,0
15.9450,-3.54,0
15.9500,51.11,0
15.9550,51.11,0
15.9600,51.11,0
15.9650,51.11,0
15.9700,346.57,0
15.9750,346.57,0
15.9800,346.57,0
15.9850,622.62,0
15.9900,622.62,0
15.9950,-16.84,0
16.0000,-16.84,0
16.0050,-504.85,0
16.0100,-256.27,0
16.0150,-474.21,0
16.0200,-474.21,0
16.0250,-518.36,0
16.0300,-54.32,0
16.0350,-982.87,0
16.0400,-982.87,0
16.0450,-1168.64,0
16.0500,-1168.64,0
16.0550,-1471.82,0
16.0600,-1471.82,0
16.0650,-175.73,0
16.0700,-1641.68,0
16.0750,-1641.68,0
16.0800,99.31,0
16.0850,-1112.92,0
16.0900,-1112.92,0
16.0950,-1168.64,0
16.1000,-1740.73,0
16.1050,-1920.46,0
16.1100,-1920.46,0
16.1150,-1759.99,0
16.1200,-132.04,0
16.1250,-2437.57,0
16.1300,-2437.57,0
16.1350,-2437.57,0
16.1400,-2730.39,0
16.1450,-2730.39,0
16.1500,-2730.39,0
16.1550,-3176.67,0
16.1600,-3176.67,0
16.1650,-3176.67,0
16.1700,-3176.67,0
16.1750,-3256.81,0
16.1800,-3256.81,0
16.1850,-3016.85,0
16.1900,-3016.85,0
16.1950,-3370.42,0
16.2000,-3370.42,0
16.2050,-1631.12,0
16.2100,-2403.92,0
16.2150,-3738.20,0
16.2200,-3967.06,0
16.2250,-3967.06,0
16.2300,-3967.06,0
16.2350,-3967.06,0
16.2400,-1113.46,0
16.2450,-2989.84,0
16.2500,-3577.18,0
16.2550,-3017.87,0
16.2600,-3878.17,0
16.2650,-3878.17,0
16.2700,-3878.17,0
16.2750,-3765.81,0
16.2800,-3765.81,0
16.2850,129.35,0
16.2900,129.35,0
16.2950,211.73,0
16.3000,211.73,0
16.3050,-3000.84,0
16.3100,130.86,0
16.3150,94.93,0
16.3200,94.93,0
16.3250,94.93,0
16.3300,94.93,0
16.3350,-3678.70,0
16.3400,162.37,0
16.3450,213.83,0
16.3500,213.83,0
16.3550,133.39,0
16.3600,133.39,0
16.3650,107.39,0
16.3700,107.39,0
16.3750,107.39,0
16.3800,107.39,0
16.3850,6.16,0
16.3900,-23.48,0
16.3950,162.37,0
16.4000,-3819.32,0
16.4050,53.23,0
16.4100,95.02,0
16.4150,-45.04,0
16.4200,-45.04,0
16.4250,133.26,0
16.4300,-45.04,0
16.4350,-9.91,0
16.4400,-9.91,0
16.4450,-69.34,0
16.4500,-1889.59,0
16.4550,-79.50,0
16.4600,-79.50,0
16.4650,-42.28,0
16.4700,-42.28,0
16.4750,-57.07,0
16.4800,-38.46,0
16.4850,-24.03,0
16.4900,133.30,0
16.4950,118.27,0
16.5000,194.74,0
16.5050,83.78,0
16.5100,31.38,0
16.5150,-45.04,0
16.5200,139.22,0
16.5250,136.44,0
16.5300,136.44,0
16.5350,152.04,0
16.5400,152.04,0
16.5450,152.04,0
16.5500,59.84,0
16.5550,59.84,0
16.5600,7.81,0
16.5650,7.81,0
16.5700,148.19,0
16.5750,12.33,0
16.5800,-36.78,0
16.5850,-36.78,0
16.5900,-36.78,0
16.5950,-36.78,0
16.6000,178.39,0
16.6050,178.39,0
16.6100,26.93,0
16.6150,26.93,0
16.6200,-441.28,0
16.6250,-441.28,0
16.6300,-441.28,0
16.6350,-441.28,0
16.6400,-332.66,0
16.6450,-576.62,0
16.6500,56.28,0
16.6550,-80.21,0
16.6600,-926.57,0
16.6650,-926.57,0
16.6700,7.81,0
16.6750,-1250.06,0
16.6800,-875.75,0
16.6850,-875.75,0
16.6900,-1064.86,0
16.6950,-1064.86,0
16.7000,-865.60,0
16.7050,-1242.58,0
16.7100,-1242.58,0
16.7150,-672.28,0
16.7200,-672.28,0
16.7250,-1011.91,0
16.7300,-1011.91,0
16.7350,-913.88,0
16.7400,-913.88,0
16.7450,-1005.01,0
16.7500,-1005.01,0
16.7550,-913.88,0
16.7600,-798.59,0
16.7650,-798.59,0
16.7700,-1093.69,0
16.7750,-1093.69,0
16.7800,-1335.46,0
16.7850,-1335.46,0
16.7900,-1335.46,0
16.7950,-1335.46,0
16.8000,-1335.46,0
16.8050,-1335.46,0
16.8100,-535.06,0
16.8150,-535.06,0
16.8200,-212.38,0
16.8250,-212.38,0
16.8300,346.27,0
16.8350,346.27,0
16.8400,346.27,0
16.8450,1197.31,0
16.8500,1197.31,0
16.8550,1197.31,0
16.8600,1052.27,0
16.8650,1726.38,0
16.8700,1726.38,0
16.8750,1726.38,0
16.8800,1726.38,0
16.8850,1726.38,0
16.8900,1726.38,0
16.8950,843.84,0
16.9000,2638.23,0
16.9050,2575.40,0
16.9100,2575.40,0
16.9150,2807.59,0
16.9200,2807.59,0
16.9250,2886.15,0
16.9300,2886.15,0
16.9350,3430.26,0
16.9400,2486.02,0
16.9450,3430.26,0
16.9500,3252.47,0
16.9550,3243.90,0
16.9600,3243.90,0
16.9650,3802.03,0
16.9700,3802.03,0
16.9750,4353.25,0
16.9800,4353.25,0
16.9850,4353.25,0
16.9900,4271.54,0
16.9950,4271.54,0
17.0000,3430.26,0
17.0050,4553.95,0
17.0100,4553.95,0
17.0150,5240.77,0
17.0200,5240.77,0
17.0250,5072.32,0
17.0300,4143.51,0
17.0350,5064.24,0
17.0400,5064.24,0
17.0450,4915.86,0
17.0500,4915.86,0
17.0550,4915.86,0
17.0600,4915.86,0
17.0650,5055.96,0
17.0700,2888.42,0
17.0750,2458.49,0
17.0800,5003.37,0
17.0850,5003.37,0
17.0900,4783.28,0
17.0950,4783.28,0
17.1000,4084.46,0
17.1050,4084.46,0
17.1100,4959.93,0
17.1150,-522.08,0
17.1200,5064.23,0
17.1250,-522.08,0
17.1300,-1019.64,0
17.1350,2847.32,0
17.1400,-436.03,0
17.1450,-436.03,0
17.1500,-967.45,0
17.1550,5480.66,0
17.1600,-967.45,0
17.1650,-967.45,0
17.1700,4296.83,0
17.1750,-1642.25,0
17.1800,-1642.25,0
17.1850,-1642.25,0
17.1900,-1736.13,0
17.1950,-1736.13,0
17.2000,-1751.35,0
17.2050,5141.85,0
17.2100,-1746.69,0
17.2150,-1746.69,0
17.2200,-1746.69,0
17.2250,-1967.58,0
17.2300,-1967.58,0
17.2350,-1925.36,0
17.2400,-1925.36,0
17.2450,-1925.36,0
17.2500,-1987.77,0
17.2550,-1987.77,0
17.2600,-2063.71,0
17.2650,-2104.90,0
17.2700,-2104.90,0
17.2750,-1035.05,0
17.2800,-1990.95,0
17.2850,-1990.95,0
17.2900,-1925.36,0
17.2950,-1956.29,0
17.3000,-1863.44,0
17.3050,-1863.44,0
17.3100,-1931.59,0
17.3150,-1943.32,0
17.3200,-1943.32,0
17.3250,-1943.32,0
17.3300,-2030.79,0
17.3350,-2030.79,0
17.3400,-2030.79,0
17.3450,-2030.79,0
17.3500,-1904.64,0
17.3550,-1388.48,0
17.3600,-1879.60,0
17.3650,-1879.60,0
17.3700,-1913.21,0
17.3750,-1913.21,0
17.3800,-1975.47,0
17.3850,-1975.47,0
17.3900,-1975.47,0
17.3950,-2030.26,0
17.4000,-2030.26,0
17.4050,-2030.26,0
17.4100,-2119.54,0
17.4150,-2119.54,0
17.4200,-1984.88,0
17.4250,-1896.25,0
17.4300,-1950.60,0
17.4350,-1950.60,0
17.4400,-1971.77,0
17.4450,-1971.77,0
17.4500,-1975.22,0
17.4550,-1975.22,0
17.4600,-1897.82,0
17.4650,-1897.82,0
17.4700,-1899.02,0
17.4750,-1899.12,0
17.4800,-1899.12,0
17.4850,-1893.82,0
17.4900,-1893.82,0
17.4950,-1941.83,0
17.5000,-1961.78,0
17.5050,-1941.83,0
17.5100,-1941.83,0
17.5150,-1894.50,0
17.5200,-1928.57,0
17.5250,-1874.86,0
17.5300,-1874.86,0
17.5350,-1874.86,0
17.5400,-2265.45,0
17.5450,-2265.45,0
17.5500,-2143.79,0
17.5550,-2143.79,0
17.5600,-2512.24,0
17.5650,-2512.24,0
17.5700,-2143.79,0
17.5750,-2041.72,0
17.5800,-2041.72,0
17.5850,-2112.14,0
17.5900,-2112.14,0
17.5950,-2159.12,0
17.6000,-2159.12,0
17.6050,-1934.22,0
17.6100,-1934.22,0
17.6150,-1934.22,0
17.6200,-1934.22,0
17.6250,-1934.22,0
17.6300,-1946.16,0
17.6350,-1946.16,0
17.6400,-1166.54,0
17.6450,-1068.47,0
17.6500,-1068.47,0
17.6550,-1068.47,0
17.6600,-1117.70,0
17.6650,-692.70,0
17.6700,-1889.35,0
17.6750,-692.70,0
17.6800,-692.70,0
17.6850,-692.70,0
17.6900,-180.34,0
17.6950,-180.34,0
17.7000,-2137.65,0
17.7050,105.53,0
17.7100,7.89,0
17.7150,-2110.98,0
17.7200,7.89,0
17.7250,-216.72,0
17.7300,-216.72,0
17.7350,176.15,0
17.7400,176.15,0
17.7450,176.15,0
17.7500,213.32,0
17.7550,176.15,0
17.7600,-298.47,0
17.7650,-396.21,0
17.7700,-396.21,0
17.7750,-396.21,0
17.7800,-396.21,0
17.7850,-396.21,0
17.7900,-396.21,0
17.7950,-1117.75,0
17.8000,-1117.75,0
17.8050,-2657.50,0
17.8100,-2657.50,0
17.8150,-2892.16,0
17.8200,-2892.16,0
17.8250,-2892.16,0
17.8300,-2990.02,0
17.8350,-2990.02,0
17.8400,-3620.86,0
17.8450,-3620.86,0
17.8500,309.27,0
17.8550,-2983.14,0
17.8600,-3577.45,0
17.8650,-3577.45,0
17.8700,-3577.45,0
17.8750,-3577.45,0
17.8800,-3583.49,0
17.8850,213.02,0
17.8900,-4069.23,0
17.8950,-4069.23,0
17.9000,-4069.23,0
17.9050,-4069.23,0
17.9100,-4572.90,0
17.9150,-4572.90,0
17.9200,-175.95,0
17.9250,389.41,0
17.9300,389.41,0
17.9350,389.41,0
17.9400,534.61,0
17.9450,534.61,0
17.9500,52.65,0
17.9550,360.43,0
17.9600,99.70,0
17.9650,360.43,0
17.9700,360.43,0
17.9750,360.43,0
17.9800,1474.41,0
17.9850,1269.51,0
17.9900,1269.51,0
17.9950,698.46,0
18.0000,698.46,0
18.0050,698.46,0
18.0100,698.46,0
18.0150,1461.13,0
18.0200,1461.13,0
18.0250,1461.13,0
18.0300,882.45,0
18.0350,882.45,0
18.0400,1530.41,0
18.0450,1474.40,0
18.0500,2004.14,0
18.0550,52.48,0
18.0600,2004.14,0
18.0650,2281.64,0
18.0700,-4260.89,0
18.0750,2308.03,0
18.0800,2308.03,0
18.0850,2308.03,0
18.0900,3117.44,0
18.0950,1269.60,0
18.1000,3369.81,0
18.1050,3369.81,0
18.1100,3369.81,0
18.1150,3041.61,0
18.1200,1076.99,0
18.1250,3026.99,0
18.1300,3026.99,0
18.1350,2454.97,0
18.1400,929.62,0
18.1450,2143.13,0
18.1500,1934.78,0
18.1550,1934.78,0
18.1600,1934.78,0
18.1650,1635.11,0
18.1700,1635.11,0
18.1750,1566.79,0
18.1800,1566.79,0
18.1850,919.21,0
18.1900,1635.11,0
18.1950,2143.13,0
18.2000,757.87,0
18.2050,757.87,0
18.2100,757.87,0
18.2150,1873.38,0
18.2200,2264.33,0
18.2250,2264.33,0
18.2300,3035.32,0
18.2350,2264.33,0
18.2400,1730.47,0
18.2450,2264.33,0
18.2500,2199.11,0
18.2550,2199.11,0
18.2600,1588.58,0
18.2650,2356.27,0
18.2700,2356.27,0
18.2750,2356.27,0
18.2800,3034.21,0
18.2850,1394.45,0
18.2900,1394.45,0
18.2950,1440.28,0
18.3000,1091.68,0
18.3050,1091.68,0
18.3100,1032.47,0
18.3150,1032.47,0
18.3200,1032.47,0
18.3250,1032.47,0
18.3300,1256.41,0
18.3350,1256.41,0
18.3400,1256.41,0
18.3450,1436.25,0
18.3500,1436.25,0
18.3550,1436.25,0
18.3600,1408.43,0
18.3650,1408.43,0
18.3700,1240.55,0
18.3750,1240.55,0
18.3800,1183.66,0
18.3850,1183.66,0
18.3900,1032.47,0
18.3950,1183.66,0
18.4000,2225.07,0
18.4050,1183.66,0
18.4100,1080.14,0
18.4150,1080.14,0
18.4200,846.84,0
18.4250,1080.14,0
18.4300,725.44,0
18.4350,725.44,0
18.4400,917.92,0
18.4450,917.92,0
18.4500,928.71,0
18.4550,928.71,0
18.4600,1194.82,0
18.4650,1194.82,0
18.4700,1266.23,0
18.4750,1266.23,0
18.4800,1468.62,0
18.4850,1468.62,0
18.4900,1468.62,0
18.4950,1468.62,0
18.5000,1497.49,0
18.5050,550.58,0
18.5100,200.70,0
18.5150,200.70,0
18.5200,200.70,0
18.5250,200.70,0
18.5300,-218.30,0
18.5350,-218.30,0
18.5400,172.59,0
18.5450,1005.10,0
18.5500,149.00,0
18.5550,149.00,0
18.5600,527.96,0
18.5650,527.96,0
18.5700,527.96,0
18.5750,927.95,0
18.5800,1280.99,0
18.5850,1553.96,0
18.5900,1553.96,0
18.5950,1553.96,0
18.6000,1553.96,0
18.6050,1553.96,0
18.6100,299.62,0
18.6150,979.59,0
18.6200,1458.04,0
18.6250,1581.45,0
18.6300,527.96,0
18.6350,638.75,0
18.6400,993.58,0
18.6450,861.08,0
18.6500,861.08,0
18.6550,861.08,0
18.6600,1232.79,0
18.6650,1232.79,0
18.6700,1515.25,0
18.6750,1515.25,0
18.6800,1080.43,0
18.6850,1080.43,0
18.6900,1080.43,0
18.6950,1080.43,0
18.7000,1315.86,0
18.7050,1892.57,0
18.7100,1892.57,0
18.7150,1797.95,0
18.7200,1797.95,0
18.7250,1797.95,0
18.7300,950.16,0
18.7350,291.70,0
18.7400,-1191.28,0
18.7450,-1191.28,0
18.7500,1581.40,0
18.7550,-1283.44,0
18.7600,-1220.14,0
18.7650,-1220.14,0
18.7700,-1220.14,0
18.7750,-1220.14,0
18.7800,-962.07,0
18.7850,-962.07,0
18.7900,-1108.91,0
18.7950,1080.44,0
18.8000,-915.87,0
18.8050,-915.87,0
18.8100,-1103.31,0
18.8150,-1356.50,0
18.8200,-1256.04,0
18.8250,-1256.04,0
18.8300,-926.24,0
18.8350,-877.18,0
18.8400,-877.18,0
18.8450,-852.57,0
18.8500,-852.57,0
18.8550,-852.57,0
18.8600,-1248.81,0
18.8650,-1248.81,0
18.8700,-923.79,0
18.8750,-954.71,0
18.8800,-954.71,0
18.8850,-1176.39,0
18.8900,-1176.39,0
18.8950,1913.50,0
18.9000,-874.74,0
18.9050,-1176.39,0
18.9100,-1248.81,0
18.9150,-1924.46,0
18.9200,-1912.72,0
18.9250,-1912.72,0
18.9300,-2133.64,0
18.9350,-2133.64,0
18.9400,-2221.95,0
18.9450,-2221.95,0
18.9500,-2221.95,0
18.9550,-1095.75,0
18.9600,-1924.94,0
18.9650,-1924.94,0
18.9700,-1954.66,0
18.9750,-2100.18,0
18.9800,-2040.08,0
18.9850,-2040.08,0
18.9900,-1123.74,0
18.9950,-1927.16,0
19.0000,-1927.16,0
19.0050,-1927.16,0
19.0100,-2026.21,0
19.0150,-2026.21,0
19.0200,-2285.68,0
19.0250,-1091.65,0
19.0300,-2093.88,0
19.0350,-2093.88,0
19.0400,-2126.48,0
19.0450,-2126.48,0
19.0500,-2108.95,0
19.0550,-2108.95,0
19.0600,-2205.98,0
19.0650,-1951.44,0
19.0700,-1951.44,0
19.0750,-1231.35,0
19.0800,-1231.35,0
19.0850,-1231.35,0
19.0900,-1059.12,0
19.0950,-1059.12,0
19.1000,-1358.06,0
19.1050,-1358.06,0
19.1100,-1747.51,0
19.1150,-1968.67,0
19.1200,-2289.17,0
19.1250,-927.08,0
19.1300,-927.08,0
19.1350,-927.08,0
19.1400,-283.58,0
19.1450,-915.93,0
19.1500,-817.07,0
19.1550,-817.07,0
19.1600,-124.36,0
19.1650,-124.36,0
19.1700,134.82,0
19.1750,134.82,0
19.1800,102.17,0
19.1850,111.29,0
19.1900,111.29,0
19.1950,-30.45,0
19.2000,-30.45,0
19.2050,-2094.06,0
19.2100,-10.70,0
19.2150,-2292.29,0
19.2200,-1053.12,0
19.2250,90.77,0
19.2300,90.77,0
19.2350,90.77,0
19.2400,134.12,0
19.2450,15.25,0
19.2500,-10.70,0
19.2550,15.25,0
19.2600,102.17,0
19.2650,-1048.93,0
19.2700,68.82,0
19.2750,-74.65,0
19.2800,-74.65,0
19.2850,-105.07,1
19.2900,-105.07,0
19.2950,85.78,0
19.3000,85.78,0
19.3050,342.66,0
19.3100,342.66,0
19.3150,339.51,0
19.3200,73.27,0
19.3250,47.78,0
19.3300,21.07,0
19.3350,442.39,0
19.3400,442.39,0
19.3450,620.67,0
19.3500,620.67,0
19.3550,890.36,0
19.3600,890.36,0
19.3650,260.66,0
19.3700,890.36,0
19.3750,1346.37,0
19.3800,1346.37,0
19.3850,2072.35,0
19.3900,2072.35,0
19.3950,2508.18,0
19.4000,2508.18,0
19.4050,2492.37,0
19.4100,2492.37,0
19.4150,2492.37,0
19.4200,2492.37,0
19.4250,2492.37,0
19.4300,2492.37,0
19.4350,2390.88,0
19.4400,2390.88,0
19.4450,1676.76,0
19.4500,1676.76,0
19.4550,2142.56,0
19.4600,2142.56,0
19.4650,305.20,0
19.4700,2623.72,0
19.4750,2038.28,0
19.4800,2038.28,0
19.4850,2214.76,0
19.4900,927.36,0
19.4950,3008.76,0
19.5000,2122.88,0
19.5050,2655.08,0
19.5100,2655.08,0
19.5150,2655.08,0
19.5200,2655.08,0
19.5250,3170.70,0
19.5300,3170.70,0
19.5350,926.01,0
19.5400,2689.02,0
19.5450,2689.02,0
19.5500,2434.22,0
19.5550,2434.22,0
19.5600,2434.22,0
19.5650,173.09,0
19.5700,173.09,0
19.5750,185.16,0
19.5800,185.16,0
19.5850,-285.93,0
19.5900,-285.93,0
19.5950,-211.93,0
19.6000,-211.93,0
19.6050,123.91,0
19.6100,123.91,0
19.6150,123.91,0
19.6200,2727.96,0
19.6250,1040.00,0
19.6300,450.02,0
19.6350,1040.00,0
19.6400,1040.00,0
19.6450,629.10,0
19.6500,629.10,0
19.6550,402.75,0
19.6600,402.75,0
19.6650,31.71,0
19.6700,31.71,0
19.6750,31.71,0
19.6800,31.71,0
19.6850,31.71,0
19.6900,594.81,0
19.6950,123.95,0
19.7000,594.81,0
19.7050,921.57,0
19.7100,921.57,0
19.7150,873.26,0
19.7200,873.26,0
19.7250,873.26,0
19.7300,966.97,0
19.7350,966.97,0
19.7400,982.12,0
19.7450,982.12,0
19.7500,-266.83,0
19.7550,962.64,0
19.7600,962.64,0
19.7650,1069.21,0
19.7700,1069.21,0
19.7750,629.51,0
19.7800,1006.70,0
19.7850,1123.20,0
19.7900,1123.20,0
19.7950,1134.36,0
19.8000,1134.36,0
19.8050,1073.16,0
19.8100,1073.16,0
19.8150,1066.21,0
19.8200,513.41,0
19.8250,987.41,0
19.8300,987.41,0
19.8350,1022.32,0
19.8400,1022.32,0
19.8450,1022.32,0
19.8500,1022.32,0
19.8550,1679.02,0
19.8600,1491.06,0
19.8650,1491.06,0
19.8700,1951.34,0
19.8750,1951.34,0
19.8800,1615.48,0
19.8850,1615.48,0
19.8900,1384.56,0
19.8950,1780.00,0
19.9000,1630.86,0
19.9050,1630.86,0
19.9100,1791.27,0
19.9150,1791.27,0
19.9200,1216.26,0
19.9250,1216.26,0
19.9300,1400.37,0
19.9350,1400.37,0
19.9400,1764.58,0
19.9450,1400.37,0
19.9500,696.11,0
19.9550,696.11,0
19.9600,696.11,0
19.9650,696.11,0
19.9700,696.11,0
19.9750,610.14,0
19.9800,610.14,0
19.9850,233.00,0
19.9900,241.23,0
19.9950,241.23,0
20.0000,241.23,0
20.0050,241.23,0
20.0100,1615.35,0
20.0150,1764.59,0
20.0200,357.66,0
20.0250,-414.10,0
20.0300,-414.10,0
20.0350,-680.03,0
20.0400,-680.03,0
20.0450,-793.52,0
20.0500,-793.52,0
20.0550,-793.52,0
20.0600,-793.52,0
20.0650,-793.52,0
20.0700,-793.52,0
20.0750,-648.62,0
20.0800,-648.62,0
20.0850,-1176.83,0
20.0900,-1176.83,0
20.0950,-1694.49,0
20.1000,-1191.23,0
20.1050,-1191.23,0
20.1100,-1008.11,0
20.1150,-1191.23,0
20.1200,-840.82,0
20.1250,-840.82,0
20.1300,-840.82,0
20.1350,-840.82,0
20.1400,-1502.05,0
20.1450,-1502.05,0
20.1500,-1539.75,0
20.1550,-1539.75,0
20.1600,-1539.75,0
20.1650,-1539.75,0
20.1700,-1539.75,0
20.1750,-1672.37,0
20.1800,-1672.37,0
20.1850,-1663.51,0
20.1900,-1663.51,0
20.1950,-1882.27,0
20.2000,-2095.72,0
20.2050,-2095.72,0
20.2100,-1694.47,0
20.2150,-2095.72,0
20.2200,-2127.97,0
20.2250,-840.81,0
20.2300,-558.83,0
20.2350,-2194.69,0
20.2400,-2384.60,0
20.2450,-2384.60,0
20.2500,-2307.34,0
20.2550,-2307.34,0
20.2600,-2307.34,0
20.2650,-2307.34,0
20.2700,-2351.11,0
20.2750,-2351.11,0
20.2800,-2234.86,0
20.2850,-1663.48,0
20.2900,-2294.08,0
20.2950,-2294.08,0
20.3000,-2443.46,0
20.3050,-2443.46,0
20.3100,-2443.46,0
20.3150,-2443.46,0
20.3200,-2442.65,0
20.3250,-2442.65,0
20.3300,-2442.65,0
20.3350,-2251.37,0
20.3400,-2602.50,0
20.3450,-2602.50,0
20.3500,-2640.28,0
20.3550,-2640.28,0
20.3600,-2187.87,0
20.3650,-2640.28,0
20.3700,-2830.30,0
20.3750,-2830.30,0
20.3800,-1892.11,0
20.3850,-1743.96,0
20.3900,-1743.96,0
20.3950,-1855.34,0
20.4000,-1855.34,0
20.4050,-1855.34,0
20.4100,-1855.34,0
20.4150,-1855.34,0
20.4200,-1782.76,0
20.4250,-1782.76,0
20.4300,-1708.95,0
20.4350,-1708.95,0
20.4400,-1788.47,0
20.4450,-1788.47,0
20.4500,-1697.00,0
20.4550,-1697.00,0
20.4600,-1696.81,0
20.4650,-1696.81,0
20.4700,-1883.47,0
20.4750,-1852.14,0
20.4800,-1318.08,0
20.4850,-1318.08,0
20.4900,-939.86,0
20.4950,-939.86,0
20.5000,-796.67,0
20.5050,-857.91,0
20.5100,-1708.94,0
20.5150,-857.91,0
20.5200,-1072.25,0
20.5250,-1017.45,0
20.5300,-1017.45,0
20.5350,-1017.45,0
20.5400,-1924.96,0
20.5450,-879.12,0
20.5500,-1372.00,0
20.5550,-1837.00,0
20.5600,-1837.00,0
20.5650,-2443.14,0
20.5700,-1914.61,0
20.5750,-2384.31,0
20.5800,-1852.42,0
20.5850,-1989.64,0
20.5900,-1989.64,0
20.5950,-1321.93,0
20.6000,-901.84,0
20.6050,-2080.95,0
20.6100,-2080.95,0
20.6150,-2026.62,0
20.6200,-2026.62,0
20.6250,-1989.64,0
20.6300,-1563.89,0
20.6350,-1563.89,0
20.6400,-1563.89,0
20.6450,-2079.23,0
20.6500,-2079.23,0
20.6550,-2856.76,0
20.6600,-2856.76,0
20.6650,-2642.42,0
20.6700,-2642.42,0
20.6750,-2850.26,0
20.6800,-2850.26,0
20.6850,-3560.97,0
20.6900,-2642.42,0
20.6950,-3305.29,0
20.7000,-3305.29,0
20.7050,-2948.78,0
20.7100,-2948.78,0
20.7150,-3549.68,0
20.7200,-3193.41,0
20.7250,-3136.99,0
20.7300,-3136.99,0
20.7350,-3165.52,0
20.7400,-3165.52,0
20.7450,-2878.33,0
20.7500,-2878.33,0
20.7550,-3095.24,0
20.7600,-2878.33,0
20.7650,-3440.60,0
20.7700,-3440.60,0
20.7750,-3706.92,0
20.7800,-3706.92,0
20.7850,-4143.02,0
20.7900,-4143.02,0
20.7950,-4243.50,0
20.8000,-4243.50,0
20.8050,-4391.51,0
20.8100,-4391.51,0
20.8150,-4490.35,0
20.8200,-4490.35,0
20.8250,-3136.95,0
20.8300,-4088.38,0
20.8350,-3249.56,0
20.8400,-3249.56,0
20.8450,-3394.85,0
20.8500,-3394.85,0
20.8550,-2414.61,0
20.8600,-3394.85,0
20.8650,-3394.85,0
20.8700,-3394.85,0
20.8750,-3133.02,0
20.8800,-3133.02,0
20.8850,-3436.89,0
20.8900,-3436.89,0
20.8950,-3474.16,0
20.9000,-3098.07,0
20.9050,-3168.55,0
20.9100,-3168.55,0
20.9150,-2967.55,0
20.9200,-2967.55,0
20.9250,-2960.00,0
20.9300,-2960.00,0
20.9350,-2960.00,0
20.9400,-3153.35,0
20.9450,-2657.51,0
20.9500,-3002.10,0
20.9550,-3002.10,0
20.9600,-3815.02,0
20.9650,-3648.01,0
20.9700,-3412.95,0
20.9750,-3412.95,0
20.9800,-3341.85,0
20.9850,-3341.85,0
20.9900,-3341.85,0
20.9950,-3239.09,0
21.0000,-3205.78,0
21.0050,-3205.78,0
21.0100,-3049.04,0
21.0150,-3049.04,0
21.0200,-2987.45,0
21.0250,-3234.35,0
21.0300,-2987.45,0
21.0350,-3434.30,0
21.0400,-2987.45,0
21.0450,-3191.48,0
21.0500,-3191.48,0
21.0550,-3191.48,0
21.0600,-3127.16,0
21.0650,-3556.29,0
21.0700,-3580.01,0
21.0750,-3193.11,0
21.0800,-3033.56,0
21.0850,-3113.92,0
21.0900,-3032.44,0
21.0950,-3032.44,0
21.1000,-3060.02,0
21.1050,-3060.02,0
21.1100,-3122.09,0
21.1150,-3122.09,0
21.1200,-3033.29,0
21.1250,-3033.29,0
21.1300,-3076.99,0
21.1350,-3076.99,0
21.1400,-2977.62,0
21.1450,-2977.62,0
21.1500,-3099.92,0
21.1550,-2977.62,0
21.1600,-2678.37,0
21.1650,-2678.37,0
21.1700,-2173.95,0
21.1750,-2173.95,0
21.1800,-3115.27,0
21.1850,-2964.88,0
21.1900,-2703.85,0
21.1950,-2703.85,0
21.2000,-1003.22,0
21.2050,-1003.22,0
21.2100,-1208.35,0
21.2150,-1208.35,0
21.2200,-2825.75,0
21.2250,-2326.48,0
21.2300,-2225.22,0
21.2350,-2225.22,0
21.2400,-1972.15,0
21.2450,-3122.64,0
21.2500,-1493.45,0
21.2550,-1576.00,0
21.2600,-1576.00,0
21.2650,-1966.70,0
21.2700,-1966.70,0
21.2750,-1748.57,0
21.2800,-1748.57,0
21.2850,-1748.57,0
21.2900,-3045.63,0
21.2950,-1096.44,0
21.3000,-2032.84,0
21.3050,-2870.49,0
21.3100,-2032.84,0
21.3150,-2032.84,0
21.3200,-2040.23,0
21.3250,-2040.23,0
21.3300,-1510.29,0
21.3350,-1510.29,0
21.3400,-1295.49,0
21.3450,-2483.15,0
21.3500,-1043.80,0
21.3550,-1043.80,0
21.3600,-1043.80,0
21.3650,-1971.77,0
21.3700,-88.71,0
21.3750,-88.71,0
21.3800,-135.56,0
21.3850,-1174.49,0
21.3900,-586.31,0
21.3950,-586.31,0
21.4000,-557.98,0
21.4050,-557.98,0
21.4100,-557.98,0
21.4150,-557.98,0
21.4200,228.35,0
21.4250,228.35,0
21.4300,57.05,0
21.4350,57.05,0
21.4400,241.65,0
21.4450,-2070.39,0
21.4500,794.67,0
21.4550,794.67,0
21.4600,794.67,0
21.4650,794.67,0
21.4700,1135.23,0
21.4750,-1487.57,0
21.4800,1245.00,0
21.4850,1245.00,0
21.4900,1279.60,0
21.4950,-1045.08,0
21.5000,1226.11,0
21.5050,-1744.90,0
21.5100,1101.19,0
21.5150,1101.19,0
21.5200,1027.63,0
21.5250,1027.63,0
21.5300,1017.23,0
21.5350,1286.38,0
21.5400,228.09,0
21.5450,1286.38,0
21.5500,1094.09,0
21.5550,1094.09,0
21.5600,1094.09,0
21.5650,1094.09,0
21.5700,877.50,0
21.5750,877.50,0
21.5800,877.50,0
21.5850,877.50,0
21.5900,1923.73,0
21.5950,1923.73,0
21.6000,1404.16,0
21.6050,1404.16,0
21.6100,1404.16,0
21.6150,1404.16,0
21.6200,1404.16,0
21.6250,1404.16,0
21.6300,1842.55,0
21.6350,1842.55,0
21.6400,1538.43,0
21.6450,1270.69,0
21.6500,899.64,0
21.6550,899.64,0
21.6600,1269.42,0
21.6650,899.64,0
21.6700,899.64,0
21.6750,899.64,0
21.6800,1030.97,0
21.6850,998.82,0
21.6900,998.82,0
21.6950,1019.53,0
21.7000,1019.53,0
21.7050,1026.04,0
21.7100,1096.11,0
21.7150,884.88,0
21.7200,1035.51,0
21.7250,1035.51,0
21.7300,998.82,0
21.7350,988.31,0
21.7400,988.31,0
21.7450,1026.84,0
21.7500,1026.84,0
21.7550,1026.84,0
21.7600,989.09,0
21.7650,989.09,0
21.7700,989.09,0
21.7750,989.09,0
21.7800,989.09,0
21.7850,989.09,0
21.7900,1005.60,0
21.7950,1005.60,0
21.8000,986.69,0
21.8050,1017.99,0
21.8100,1019.50,0
21.8150,986.69,0
21.8200,983.18,0
21.8250,1748.16,0
21.8300,991.06,0
21.8350,991.06,0
21.8400,991.06,0
21.8450,991.06,0
21.8500,985.73,0
21.8550,985.73,0
21.8600,976.27,0
21.8650,976.27,0
21.8700,1007.79,0
21.8750,1007.79,0
21.8800,991.27,0
21.8850,931.34,0
21.8900,1013.85,0
21.8950,1013.85,0
21.9000,1013.85,0
21.9050,1014.82,0
21.9100,1007.32,0
21.9150,1007.32,0
21.9200,991.22,0
21.9250,983.53,0
21.9300,1015.49,0
21.9350,974.89,0
21.9400,974.89,0
21.9450,979.77,0
21.9500,974.89,0
21.9550,993.97,0
21.9600,993.97,0
21.9650,1011.65,0
21.9700,984.82,0
21.9750,971.85,0
21.9800,971.85,0
21.9850,1001.24,0
21.9900,1001.24,0
21.9950,1017.63,0
22.0000,1001.24,0
22.0050,973.54,0
22.0100,973.54,0
22.0150,984.82,0
22.0200,1015.50,0
22.0250,977.84,0
22.0300,1.64,0
22.0350,27.91,0
22.0400,27.91,0
22.0450,4.76,0
22.0500,4.76,0
22.0550,4.76,0
22.0600,4.76,0
22.0650,39.35,0
22.0700,39.35,0
22.0750,-7.63,0
22.0800,-7.63,0
22.0850,975.59,0
22.0900,10.83,0
22.0950,887.82,0
22.1000,15.50,0
22.1050,30.09,0
22.1100,30.09,0
22.1150,30.09,0
22.1200,34.95,0
22.1250,34.95,0
22.1300,34.95,0
22.1350,10.11,0
22.1400,39.00,0
22.1450,28.59,0
22.1500,28.59,0
22.1550,27.38,0
22.1600,27.38,0
22.1650,27.38,0
22.1700,5.05,0
22.1750,-5.69,0
22.1800,-5.69,0
22.1850,18.54,0
22.1900,18.54,0
22.1950,18.54,0
22.2000,-26.58,0
22.2050,-26.58,0
22.2100,-26.51,0
22.2150,-26.51,0
22.2200,-33.95,0
22.2250,-33.95,0
22.2300,-32.82,0
22.2350,-32.82,0
22.2400,-25.98,0
22.2450,-25.98,0
22.2500,76.55,0
22.2550,76.55,0
22.2600,-26.51,0
22.2650,17.75,0
22.2700,19.71,0
22.2750,19.71,0
22.2800,19.84,0
22.2850,-12.02,0
22.2900,-12.02,0
22.2950,-12.02,0
22.3000,-12.02,0
22.3050,-12.02,0
22.3100,13.01,0
22.3150,13.01,0
22.3200,-31.40,0
22.3250,15.71,0
22.3300,15.71,0
22.3350,-12.59,0
22.3400,-12.59,0
22.3450,-6.95,0
22.3500,-6.95,0
22.3550,-35.50,0
22.3600,-28.52,0
22.3650,16.78,0
22.3700,16.78,0
22.3750,-12.29,0
22.3800,-12.29,0
22.3850,18.75,0
22.3900,18.75,0
22.3950,18.75,0
22.4000,18.75,0
22.4050,17.55,0
22.4100,17.55,0
22.4150,-6.29,0
22.4200,-6.29,0
22.4250,-5.91,0
22.4300,-5.91,0
22.4350,15.68,0
22.4400,-27.95,0
22.4450,-27.95,0
22.4500,-27.95,0
22.4550,-8.86,0
22.4600,-8.86,0
22.4650,-5.84,0
22.4700,-5.84,0
22.4750,18.80,0
22.4800,18.80,0
22.4850,21.41,0
22.4900,21.41,0
22.4950,21.41,0
22.5000,21.41,0
22.5050,-7.83,0
22.5100,-7.83,0
22.5150,21.66,0
22.5200,21.66,0
22.5250,21.49,0
22.5300,-30.63,0
22.5350,-7.06,0
22.5400,-7.06,0
22.5450,-7.06,0
22.5500,-7.06,0
22.5550,-3.43,0
22.5600,-3.43,0
22.5650,-3.43,0
22.5700,-3.43,0
22.5750,-24.68,0
22.5800,-24.68,0
22.5850,-24.68,0
22.5900,-24.68,0
22.5950,-24.68,0
22.6000,18.35,0
22.6050,-21.80,0
22.6100,20.77,0
22.6150,19.27,0
22.6200,19.27,0
22.6250,-10.55,0
22.6300,-10.55,0
22.6350,19.95,0
22.6400,19.95,0
22.6450,8.53,0
22.6500,8.53,0
22.6550,21.46,0
22.6600,-27.45,0
22.6650,-27.45,0
22.6700,-27.45,0
22.6750,31.17,0
22.6800,31.17,0
22.6850,-24.97,0
22.6900,-24.97,0
22.6950,-5.33,0
22.7000,-5.33,0
22.7050,-1.55,0
22.7100,-1.55,0
22.7150,27.82,0
22.7200,27.82,0
22.7250,12.03,0
22.7300,27.60,0
22.7350,27.60,0
22.7400,27.60,0
22.7450,-2.10,0
22.7500,-2.10,0
22.7550,25.02,0
22.7600,25.02,0
22.7650,-2.10,0
22.7700,25.91,0
22.7750,-2.79,0
22.7800,-2.79,0
22.7850,-2.79,0
22.7900,-2.79,0
22.7950,28.80,0
22.8000,28.80,0
22.8050,12.57,0
22.8100,-23.47,0
22.8150,-23.47,0
22.8200,-2.12,0
22.8250,-2.12,0
22.8300,-19.38,0
22.8350,-19.38,0
22.8400,12.68,0
22.8450,12.68,0
22.8500,12.68,0
22.8550,12.68,0
22.8600,-21.48,0
22.8650,33.20,0
22.8700,33.20,0
22.8750,-16.85,0
22.8800,20.56,0
22.8850,13.75,0
22.8900,13.75,0
22.8950,13.75,0
22.9000,13.75,0
22.9050,13.75,0
22.9100,34.16,0
22.9150,34.16,0
22.9200,34.16,0
22.9250,34.16,0
22.9300,13.96,0
22.9350,13.96,0
22.9400,-19.08,0
22.9450,-2.09,0
22.9500,32.10,0
22.9550,32.10,0
22.9600,-17.14,0
22.9650,-17.14,0
22.9700,9.90,0
22.9750,9.90,0
22.9800,-21.58,0
22.9850,31.57,0
22.9900,31.57,0
22.9950,31.57,0
23.0000,31.57,0
23.0050,-23.21,0
23.0100,9.44,0
23.0150,9.44,0
23.0200,15.36,0
23.0250,15.36,0
23.0300,29.09,0
23.0350,29.09,0
23.0400,29.09,0
23.0450,29.09,0
23.0500,29.09,0
23.0550,9.44,0
23.0600,13.38,0
23.0650,13.38,0
23.0700,-22.52,0
23.0750,0.63,0
23.0800,-14.18,0
23.0850,-14.18,0
23.0900,-4.05,0
23.0950,12.41,0
23.1000,-24.17,0
23.1050,17.85,0
23.1100,-20.67,0
23.1150,-23.07,0
23.1200,33.84,0
23.1250,31.53,0
23.1300,-27.88,0
23.1350,15.36,0
23.1400,13.98,0
23.1450,13.98,0
23.1500,-18.85,0
23.1550,-18.85,0
23.1600,-11.58,0
23.1650,-11.58,0
23.1700,-11.58,0
23.1750,-11.58,0
23.1800,13.62,0
23.1850,-21.63,0
23.1900,-21.63,0
23.1950,-21.63,0
23.2000,-14.62,0
23.2050,-14.62,0
23.2100,5.64,0
23.2150,0.87,0
23.2200,5.64,0
23.2250,5.64,0
23.2300,-19.67,0
23.2350,31.07,0
23.2400,23.20,0
23.2450,-13.55,0
23.2500,-13.55,0
23.2550,39.13,0
23.2600,-14.53,0
23.2650,16.98,0
23.2700,16.98,0
23.2750,1.22,0
23.2800,27.84,0
23.2850,-10.46,0
23.2900,-10.46,0
23.2950,17.81,0
23.3000,17.81,0
23.3050,-18.38,0
23.3100,-18.38,0
23.3150,27.55,0
23.3200,27.55,0
23.3250,-11.94,0
23.3300,-8.87,0
23.3350,-11.94,0
23.3400,-8.87,0
23.3450,-8.87,0
23.3500,-8.87,0
23.3550,-8.87,0
23.3600,-8.87,0
23.3650,28.45,0
23.3700,28.45,0
23.3750,22.78,0
23.3800,28.45,0
23.3850,18.91,0
23.3900,18.91,0
23.3950,28.48,0
23.4000,-26.66,0
23.4050,-7.88,0
23.4100,26.75,0
23.4150,-7.88,0
23.4200,20.07,0
23.4250,20.07,0
23.4300,6.29,0
23.4350,-20.21,0
23.4400,-8.65,0
23.4450,-8.65,0
23.4500,4.95,0
23.4550,2.99,0
23.4600,4.98,0
23.4650,18.91,0
23.4700,-19.39,0
23.4750,-19.39,0
23.4800,20.07,0
23.4850,29.95,0
23.4900,-3.53,0
23.4950,-3.53,0
23.5000,-3.53,0
23.5050,-3.53,0
23.5100,-7.24,0
23.5150,23.31,0
23.5200,24.43,0
23.5250,24.43,0
23.5300,-4.75,0
23.5350,-4.75,0
23.5400,0.58,0
23.5450,0.58,0
23.5500,20.12,0
23.5550,20.12,0
23.5600,-18.42,0
23.5650,-18.42,0
23.5700,-7.26,0
23.5750,-7.26,0
23.5800,0.87,0
23.5850,0.87,0
23.5900,20.99,0
23.5950,25.65,0
23.6000,25.65,0
23.6050,-4.75,0
23.6100,-4.75,0
23.6150,25.65,0
23.6200,-2.44,0
23.6250,24.30,0
23.6300,24.30,0
23.6350,24.30,0
23.6400,23.37,0
23.6450,23.37,0
23.6500,-13.08,0
23.6550,31.33,0
23.6600,31.33,0
23.6650,-18.08,0
23.6700,-18.08,0
23.6750,-18.08,0
23.6800,-19.03,0
23.6850,-25.44,0
23.6900,8.91,0
23.6950,-14.34,0
23.7000,-14.34,0
23.7050,-14.34,0
23.7100,9.08,0
23.7150,9.08,0
23.7200,9.08,0
23.7250,9.08,0
23.7300,-4.14,0
23.7350,28.75,0
23.7400,28.75,0
23.7450,28.75,0
23.7500,10.57,0
23.7550,10.57,0
23.7600,6.61,0
23.7650,6.61,0
23.7700,8.88,0
23.7750,6.61,0
23.7800,-30.87,0
23.7850,27.44,0
23.7900,-16.22,0
23.7950,-16.22,0
23.8000,11.13,0
23.8050,7.58,0
23.8100,-11.73,0
23.8150,28.69,0
23.8200,28.69,0
23.8250,-15.51,0
23.8300,-15.51,0
23.8350,12.82,0
23.8400,25.49,0
23.8450,-13.30,0
23.8500,-13.30,0
23.8550,-2.45,0
23.8600,30.15,0
23.8650,-13.32,0
23.8700,-13.32,0
23.8750,11.06,0
23.8800,11.06,0
23.8850,13.79,0
23.8900,13.79,0
23.8950,30.73,0
23.9000,30.73,0
23.9050,30.73,0
23.9100,30.73,0
23.9150,24.27,0
23.9200,14.54,0
23.9250,-14.35,0
23.9300,-14.35,0
23.9350,-14.35,0
23.9400,-14.35,0
23.9450,-21.05,0
23.9500,-15.64,0
23.9550,-15.64,0
23.9600,10.45,0
23.9650,10.45,0
23.9700,-13.71,0
23.9750,-14.35,0
23.9800,29.60,0
23.9850,29.60,0
23.9900,29.60,0
23.9950,11.48,0
24.0000,11.48,0
24.0050,12.26,0
24.0100,12.26,0
24.0150,26.08,0
24.0200,26.08,0
24.0250,-13.10,0
24.0300,30.07,0
24.0350,-13.10,0
24.0400,10.34,0
24.0450,10.34,0
24.0500,12.22,0
24.0550,12.22,0
24.0600,-21.06,0
24.0650,-17.55,0
24.0700,-15.61,0
24.0750,-12.38,0
24.0800,12.59,0
24.0850,12.59,0
24.0900,13.05,0
24.0950,29.68,0
24.1000,0.03,0
24.1050,29.68,0
24.1100,29.68,0
24.1150,29.68,0
24.1200,-13.63,0
24.1250,-13.63,0
24.1300,14.09,0
24.1350,14.09,0
24.1400,31.72,0
24.1450,31.72,0
24.1500,-11.67,0
24.1550,-11.67,0
24.1600,-11.67,0
24.1650,-12.43,0
24.1700,12.17,0
24.1750,12.17,0
24.1800,-11.59,0
24.1850,-11.56,0
24.1900,-11.56,0
24.1950,-11.56,0
24.2000,-11.56,0
24.2050,-11.56,0
24.2100,11.92,0
24.2150,-16.99,0
24.2200,-16.99,0
24.2250,27.68,0
24.2300,27.68,0
24.2350,10.49,0
24.2400,10.49,0
24.2450,16.00,0
24.2500,16.00,0
24.2550,25.71,0
24.2600,16.00,0
24.2650,28.78,0
24.2700,28.78,0
24.2750,28.78,0
24.2800,28.78,0
24.2850,11.71,1
24.2900,11.71,0
24.2950,-13.47,0
24.3000,-13.47,0
24.3050,-13.47,0
24.3100,-13.47,0
24.3150,-17.61,0
24.3200,9.24,0
24.3250,9.24,0
24.3300,9.24,0
24.3350,-18.16,0
24.3400,-18.16,0
24.3450,31.95,0
24.3500,31.95,0
24.3550,31.95,0
24.3600,31.95,0
24.3650,20.49,0
24.3700,4.46,0
24.3750,4.46,0
24.3800,4.46,0
24.3850,-16.63,0
24.3900,-16.63,0
24.3950,-11.20,0
24.4000,-13.69,0
24.4050,8.04,0
24.4100,-1.15,0
24.4150,13.91,0
24.4200,13.91,0
24.4250,-14.16,0
24.4300,-14.16,0
24.4350,25.92,0
24.4400,-10.23,0
24.4450,8.82,0
24.4500,11.57,0
24.4550,14.36,0
24.4600,14.36,0
24.4650,-17.28,0
24.4700,-17.28,0
24.4750,-0.50,0
24.4800,28.36,0
24.4850,-0.50,0
24.4900,-0.50,0
24.4950,-18.40,0
24.5000,-18.40,0
24.5050,1.11,0
24.5100,-2.95,0
24.5150,-2.95,0
24.5200,-2.95,0
24.5250,26.54,0
24.5300,-17.65,0
24.5350,-17.65,0
24.5400,1.26,0
24.5450,1.26,0
24.5500,-3.12,0
24.5550,-3.12,0
24.5600,-3.12,0
24.5650,-3.12,0
24.5700,-20.40,0
24.5750,-20.40,0
24.5800,21.94,0
24.5850,21.08,0
24.5900,-7.32,0
24.5950,-7.32,0
24.6000,29.16,0
24.6050,29.16,0
24.6100,-17.65,0
24.6150,-20.40,0
24.6200,2.19,0
24.6250,-20.40,0
24.6300,20.73,0
24.6350,2.19,0
24.6400,21.08,0
24.6450,25.34,0
24.6500,-19.70,0
24.6550,-19.70,0
24.6600,19.47,0
24.6650,19.47,0
24.6700,-0.52,0
24.6750,4.36,0
24.6800,-6.43,0
24.6850,-6.43,0
24.6900,0.74,0
24.6950,-19.13,0
24.7000,21.06,0
24.7050,-19.70,0
24.7100,2.37,0
24.7150,-4.07,0
24.7200,-4.07,0
24.7250,28.34,0
24.7300,28.34,0
24.7350,16.71,0
24.7400,16.71,0
24.7450,3.48,0
24.7500,3.48,0
24.7550,-7.51,0
24.7600,-7.51,0
24.7650,-13.41,0
24.7700,-13.41,0
24.7750,-13.41,0
24.7800,-13.41,0
24.7850,1.96,0
24.7900,1.96,0
24.7950,-6.76,0
24.8000,-6.76,0
24.8050,-6.76,0
24.8100,-6.76,0
24.8150,-6.76,0
24.8200,-6.76,0
24.8250,-19.29,0
24.8300,-19.29,0
24.8350,-6.41,0
24.8400,-6.41,0
24.8450,-9.08,0
24.8500,-6.41,0
24.8550,27.26,0
24.8600,19.13,0
24.8650,4.17,0
24.8700,4.17,0
24.8750,4.17,0
24.8800,4.17,0
24.8850,26.35,0
24.8900,26.35,0
24.8950,-17.44,0
24.9000,-17.44,0
24.9050,-7.49,0
24.9100,-19.24,0
24.9150,-3.27,0
24.9200,-3.27,0
24.9250,-3.27,0
24.9300,-3.27,0
24.9350,26.72,0
24.9400,-15.02,0
24.9450,18.78,0
24.9500,18.78,0
24.9550,-3.70,0
24.9600,-3.70,0
24.9650,44.63,0
24.9700,24.74,0
24.9750,-16.41,0
24.9800,-16.41,0
24.9850,5.57,0
24.9900,5.57,0
24.9950,5.57,0
25.0000,5.57,0
25.0050,5.57,0
25.0100,21.08,0
25.0150,21.08,0
25.0200,-12.74,0
25.0250,-12.74,0
25.0300,16.07,0
25.0350,-7.89,0
25.0400,-3.47,0
25.0450,-3.47,0
25.0500,-3.47,0
25.0550,-3.47,0
25.0600,-13.00,0
25.0650,-13.00,0
25.0700,11.41,0
25.0750,11.41,0
25.0800,21.76,0
25.0850,23.59,0
25.0900,-4.33,0
25.0950,23.59,0
25.1000,23.59,0
25.1050,13.28,0
25.1100,13.28,0
25.1150,5.78,0
25.1200,5.78,0
25.1250,22.23,0
25.1300,22.23,0
25.1350,-8.45,0
25.1400,-8.45,0
25.1450,18.54,0
25.1500,18.54,0
25.1550,-2.74,0
25.1600,-2.74,0
25.1650,-2.74,0
25.1700,-44.56,0
25.1750,27.37,0
25.1800,-44.56,0
25.1850,-34.75,0
25.1900,-34.75,0
25.1950,-52.84,0
25.2000,-52.84,0
25.2050,-21.29,0
25.2100,-21.29,0
25.2150,-21.29,0
25.2200,-21.29,0
25.2250,-21.29,0
25.2300,-104.02,0
25.2350,-104.02,0
25.2400,-126.67,0
25.2450,-126.67,0
25.2500,-167.57,0
25.2550,-65.44,0
25.2600,-167.57,0
25.2650,-167.57,0
25.2700,-167.57,0
25.2750,-167.57,0
25.2800,114.48,0
25.2850,114.48,0
25.2900,136.41,0
25.2950,136.41,0
25.3000,-73.68,0
25.3050,-73.68,0
25.3100,-11.09,0
25.3150,-11.09,0
25.3200,34.16,0
25.3250,34.16,0
25.3300,34.16,0
25.3350,34.16,0
25.3400,44.75,0
25.3450,-104.03,0
25.3500,44.75,0
25.3550,87.08,0
25.3600,87.08,0
25.3650,87.08,0
25.3700,-11.55,0
25.3750,-11.55,0
25.3800,-11.55,0
25.3850,-11.55,0
25.3900,-11.55,0
25.3950,58.75,0
25.4000,58.75,0
25.4050,65.14,0
25.4100,65.14,0
25.4150,22.57,0
25.4200,22.57,0
25.4250,44.75,0
25.4300,22.57,0
25.4350,-20.75,0
25.4400,26.88,0
25.4450,26.88,0
25.4500,-18.27,0
25.4550,-18.27,0
25.4600,-31.38,0
25.4650,58.75,0
25.4700,-31.38,0
25.4750,-30.97,0
25.4800,-30.97,0
25.4850,-41.88,0
25.4900,-17.88,0
25.4950,-74.74,0
25.5000,-74.74,0
25.5050,-108.18,0
25.5100,-108.18,0
25.5150,-64.57,0
25.5200,-64.57,0
25.5250,-64.57,0
25.5300,-64.57,0
25.5350,1.50,0
25.5400,1.50,0
25.5450,-36.21,0
25.5500,-36.21,0
25.5550,-1.89,0
25.5600,-1.89,0
25.5650,4.38,0
25.5700,-83.32,0
25.5750,-33.57,0
25.5800,52.65,0
25.5850,-364.05,0
25.5900,-364.05,0
25.5950,-280.22,0
25.6000,-45.66,0
25.6050,-45.66,0
25.6100,-57.42,0
25.6150,-57.42,0
25.6200,-57.42,0
25.6250,-57.42,0
25.6300,-57.42,0
25.6350,-57.42,0
25.6400,-57.42,0
25.6450,153.60,0
25.6500,258.94,0
25.6550,258.94,0
25.6600,258.94,0
25.6650,260.43,0
25.6700,260.43,0
25.6750,178.83,0
25.6800,178.83,0
25.6850,179.26,0
25.6900,3.65,0
25.6950,3.65,0
25.7000,3.65,0
25.7050,-40.84,0
25.7100,-40.84,0
25.7150,-40.84,0
25.7200,-40.84,0
25.7250,-1.99,0
25.7300,-1.99,0
25.7350,-105.01,0
25.7400,-105.01,0
25.7450,-105.01,0
25.7500,-23.08,0
25.7550,-23.08,0
25.7600,-537.53,0
25.7650,-537.53,0
25.7700,-537.53,0
25.7750,-220.18,0
25.7800,-220.18,0
25.7850,-220.18,0
25.7900,-206.45,0
25.7950,-206.45,0
25.8000,216.74,0
25.8050,-206.45,0
25.8100,-272.72,0
25.8150,-272.72,0
25.8200,253.75,0
25.8250,63.28,0
25.8300,-39.56,0
25.8350,-39.56,0
25.8400,-39.56,0
25.8450,-39.56,0
25.8500,-39.56,0
25.8550,-68.91,0
25.8600,-68.91,0
25.8650,315.59,0
25.8700,315.59,0
25.8750,694.01,0
25.8800,694.01,0
25.8850,1329.12,0
25.8900,1329.12,0
25.8950,896.91,0
25.9000,539.42,0
25.9050,539.42,0
25.9100,315.59,0
25.9150,767.76,0
25.9200,428.64,0
25.9250,20.48,0
25.9300,3.09,0
25.9350,3.09,0
25.9400,-788.71,0
25.9450,-788.71,0
25.9500,-304.18,0
25.9550,-304.18,0
25.9600,-65.51,0
25.9650,-65.51,0
25.9700,-135.86,0
25.9750,-135.86,0
25.9800,-351.31,0
25.9850,-351.31,0
25.9900,-91.69,0
25.9950,-91.69,0
26.0000,-291.98,0
26.0050,-291.98,0
26.0100,-569.77,0
26.0150,-351.31,0
26.0200,-171.43,0
26.0250,-171.43,0
26.0300,-543.50,0
26.0350,586.59,0
26.0400,-1255.19,0
26.0450,-1255.19,0
26.0500,-804.68,0
26.0550,-804.68,0
26.0600,-804.68,0
26.0650,-804.68,0
26.0700,-377.02,0
26.0750,-377.02,0
26.0800,-788.17,0
26.0850,-788.17,0
26.0900,-951.75,0
26.0950,87.92,0
26.1000,216.94,0
26.1050,216.94,0
26.1100,216.94,0
26.1150,821.70,0
26.1200,-97.29,0
26.1250,1907.45,0
26.1300,1907.45,0
26.1350,1907.45,0
26.1400,1452.27,0
26.1450,1452.27,0
26.1500,1452.27,0
26.1550,809.20,0
26.1600,809.20,0
26.1650,809.20,0
26.1700,809.20,0
26.1750,1372.62,0
26.1800,1372.62,0
26.1850,1220.69,0
26.1900,1220.69,0
26.1950,1330.10,0
26.2000,1330.10,0
26.2050,1330.10,0
26.2100,2150.87,0
26.2150,2150.87,0
26.2200,2150.87,0
26.2250,2150.87,0
26.2300,2739.52,0
26.2350,2739.52,0
26.2400,2715.63,0
26.2450,2715.63,0
26.2500,2715.63,0
26.2550,2715.63,0
26.2600,2715.63,0
26.2650,3277.26,0
26.2700,1668.97,0
26.2750,1372.64,0
26.2800,3114.17,0
26.2850,3664.69,0
26.2900,3664.69,0
26.2950,3664.69,0
26.3000,3664.69,0
26.3050,4122.15,0
26.3100,4122.15,0
26.3150,4676.21,0
26.3200,4676.21,0
26.3250,4528.31,0
26.3300,4528.31,0
26.3350,4528.31,0
26.3400,4528.31,0
26.3450,4528.31,0
26.3500,4528.31,0
26.3550,5241.06,0
26.3600,4921.68,0
26.3650,4921.68,0
26.3700,4921.68,0
26.3750,5000.69,0
26.3800,4686.28,0
26.3850,5023.62,0
26.3900,5023.62,0
26.3950,5023.62,0
26.4000,5584.90,0
26.4050,5655.18,0
26.4100,5499.77,0
26.4150,4423.44,0
26.4200,5629.01,0
26.4250,5629.01,0
26.4300,5629.01,0
26.4350,6122.37,0
26.4400,6462.03,0
26.4450,6462.03,0
26.4500,6556.06,0
26.4550,6556.06,0
26.4600,5136.64,0
26.4650,6427.02,0
26.4700,5205.30,0
26.4750,328.74,0
26.4800,5993.15,0
26.4850,5993.15,0
26.4900,6145.42,0
26.4950,6145.42,0
26.5000,6434.17,0
26.5050,6434.17,0
26.5100,6035.93,0
26.5150,6035.93,0
26.5200,6070.05,0
26.5250,6070.05,0
26.5300,6177.82,0
26.5350,6177.82,0
26.5400,6230.53,0
26.5450,6230.53,0
26.5500,6233.89,0
26.5550,6233.89,0
26.5600,6233.89,0
26.5650,6197.88,0
26.5700,6501.21,0
26.5750,6501.21,0
26.5800,6018.94,0
26.5850,6018.94,0
26.5900,5454.96,0
26.5950,5454.96,0
26.6000,4961.85,0
26.6050,4961.85,0
26.6100,4594.27,0
26.6150,4594.27,0
26.6200,5176.67,0
26.6250,5176.67,0
26.6300,5135.98,0
26.6350,5135.98,0
26.6400,5844.20,0
26.6450,5844.20,0
26.6500,5844.20,0
26.6550,5626.65,0
26.6600,5626.65,0
26.6650,5662.38,0
26.6700,5662.38,0
26.6750,6574.56,0
26.6800,6574.56,0
26.6850,6574.56,0
26.6900,6574.56,0
26.6950,6412.98,0
26.7000,6412.98,0
26.7050,6412.98,0
26.7100,6683.02,0
26.7150,6683.02,0
26.7200,7356.38,0
26.7250,7356.38,0
26.7300,7178.59,0
26.7350,7178.59,0
26.7400,7178.59,0
26.7450,7178.59,0
26.7500,7519.59,0
26.7550,7519.59,0
26.7600,7992.16,0
26.7650,5885.46,0
26.7700,7992.16,0
26.7750,7992.16,0
26.7800,7944.84,0
26.7850,7944.84,0
26.7900,7633.87,0
26.7950,8043.08,0
26.8000,8043.08,0
26.8050,7955.47,0
26.8100,7955.47,0
26.8150,7955.47,0
26.8200,7955.47,0
26.8250,8166.42,0
26.8300,6559.15,0
26.8350,8788.49,0
26.8400,8788.49,0
26.8450,8703.30,0
26.8500,8703.30,0
26.8550,8703.30,0
26.8600,8280.03,0
26.8650,7230.24,0
26.8700,8442.63,0
26.8750,8442.63,0
26.8800,8071.08,0
26.8850,8581.50,0
26.8900,8871.16,0
26.8950,8877.70,0
26.9000,8877.70,0
26.9050,6647.57,0
26.9100,8801.04,0
26.9150,8442.63,0
26.9200,1190.41,0
26.9250,1190.41,0
26.9300,1190.41,0
26.9350,1060.09,0
26.9400,7925.83,0
26.9450,1234.99,0
26.9500,1234.99,0
26.9550,1234.99,0
26.9600,1190.14,0
26.9650,1124.63,0
26.9700,1124.63,0
26.9750,-128.92,0
26.9800,-128.92,0
26.9850,1190.41,0
26.9900,-128.92,0
26.9950,-346.85,0
27.0000,-346.85,0
27.0050,-925.53,0
27.0100,-925.53,0
27.0150,-1115.66,0
27.0200,-1115.66,0
27.0250,-1115.66,0
27.0300,-1115.66,0
27.0350,1235.01,0
27.0400,-1115.66,0
27.0450,-1530.18,0
27.0500,-1530.18,0
27.0550,1965.00,0
27.0600,-2047.74,0
27.0650,-2047.74,0
27.0700,-1290.49,0
27.0750,-1290.49,0
27.0800,-1059.40,0
27.0850,-1059.40,0
27.0900,-2047.74,0
27.0950,-653.20,0
27.1000,-810.66,0
27.1050,-810.66,0
27.1100,-810.66,0
27.1150,-810.66,0
27.1200,-423.42,0
27.1250,-423.42,0
27.1300,-925.35,0
27.1350,-91.69,0
27.1400,547.04,0
27.1450,-351.00,0
27.1500,-121.12,0
27.1550,-121.12,0
27.1600,-121.12,0
27.1650,-121.12,0
27.1700,736.22,0
27.1750,736.22,0
27.1800,359.80,0
27.1850,359.80,0
27.1900,744.82,0
27.1950,744.82,0
27.2000,1224.87,0
27.2050,1224.87,0
27.2100,1249.63,0
27.2150,1249.63,0
27.2200,1592.65,0
27.2250,1620.11,0
27.2300,1620.11,0
27.2350,1671.48,0
27.2400,1671.48,0
27.2450,-155.77,0
27.2500,1409.75,0
27.2550,1409.75,0
27.2600,1510.40,0
27.2650,1510.40,0
27.2700,1510.40,0
27.2750,1700.07,0
27.2800,1967.35,0
27.2850,1967.35,0
27.2900,2190.99,0
27.2950,2190.99,0
27.3000,1632.94,0
27.3050,1632.94,0
27.3100,1632.94,0
27.3150,1632.94,0
27.3200,1588.78,0
27.3250,1588.78,0
27.3300,1469.87,0
27.3350,1469.87,0
27.3400,762.99,0
27.3450,762.99,0
27.3500,762.99,0
27.3550,1588.78,0
27.3600,762.99,0
27.3650,762.99,0
27.3700,1455.52,0
27.3750,1455.52,0
27.3800,1528.80,0
27.3850,1390.90,0
27.3900,1277.25,0
27.3950,1277.25,0
27.4000,1149.08,0
27.4050,1149.08,0
27.4100,1494.80,0
27.4150,1109.19,0
27.4200,1109.19,0
27.4250,1261.90,0
27.4300,1469.86,0
27.4350,1261.90,0
27.4400,1261.90,0
27.4450,1228.49,0
27.4500,1228.49,0
27.4550,1414.23,0
27.4600,1878.16,0
27.4650,1825.04,0
27.4700,1825.04,0
27.4750,1825.04,0
27.4800,1825.04,0
27.4850,1815.29,0
27.4900,1815.29,0
27.4950,1399.50,0
27.5000,1399.50,0
27.5050,2363.17,0
27.5100,2363.17,0
27.5150,1913.41,0
27.5200,1913.41,0
27.5250,1913.41,0
27.5300,1913.41,0
27.5350,1605.19,0
27.5400,1605.19,0
27.5450,1644.06,0
27.5500,1644.06,0
27.5550,1311.85,0
27.5600,1311.85,0
27.5650,1341.66,0
27.5700,1825.06,0
27.5750,580.33,0
27.5800,580.33,0
27.5850,736.53,0
27.5900,736.53,0
27.5950,728.78,0
27.6000,1373.35,0
27.6050,1373.35,0
27.6100,443.44,0
27.6150,1779.49,0
27.6200,443.44,0
27.6250,647.39,0
27.6300,609.64,0
27.6350,609.64,0
27.6400,1436.15,0
27.6450,1966.96,0
27.6500,1293.11,0
27.6550,1293.11,0
27.6600,1290.31,0
27.6650,1290.31,0
27.6700,1290.31,0
27.6750,1290.31,0
27.6800,881.22,0
27.6850,1819.78,0
27.6900,881.22,0
27.6950,881.22,0
27.7000,804.03,0
27.7050,804.03,0
27.7100,1473.71,0
27.7150,1473.71,0
27.7200,1473.71,0
27.7250,1473.71,0
27.7300,647.77,0
27.7350,617.29,0
27.7400,213.10,0
27.7450,-410.33,0
27.7500,-410.33,0
27.7550,-410.33,0
27.7600,-821.72,0
27.7650,-821.72,0
27.7700,-1289.52,0
27.7750,-1289.52,0
27.7800,-1298.05,0
27.7850,-1298.05,0
27.7900,-1403.67,0
27.7950,-410.33,0
27.8000,-1789.52,0
27.8050,-1789.52,0
27.8100,-2232.61,0
27.8150,-2258.96,0
27.8200,-2258.96,0
27.8250,-1731.53,0
27.8300,-1731.53,0
27.8350,-1731.53,0
27.8400,-1882.50,0
27.8450,-2429.28,0
27.8500,-2429.28,0
27.8550,1327.25,0
27.8600,-2427.31,0
27.8650,-1687.34,0
27.8700,-1687.34,0
27.8750,-1687.34,0
27.8800,-1687.34,0
27.8850,-1687.34,0
27.8900,-1883.03,0
27.8950,-1731.53,0
27.9000,-1055.95,0
27.9050,-1902.75,0
27.9100,-1997.77,0
27.9150,-1883.03,0
27.9200,-1997.77,0
27.9250,-1997.77,0
27.9300,-1536.97,0
27.9350,-1536.97,0
27.9400,-1886.05,0
27.9450,-1886.05,0
27.9500,-1536.75,0
27.9550,-1536.75,0
27.9600,-1811.53,0
27.9650,-1811.53,0
27.9700,-1945.10,0
27.9750,-1945.10,0
27.9800,-1748.25,0
27.9850,-1945.10,0
27.9900,-1945.10,0
27.9950,-1952.10,0
28.0000,-1952.10,0
28.0050,-1952.10,0
28.0100,-1988.32,0
28.0150,-1988.32,0
28.0200,-1960.65,0
28.0250,-1960.65,0
28.0300,-1960.65,0
28.0350,-2134.01,0
28.0400,-2134.01,0
28.0450,-2195.18,0
28.0500,-2195.18,0
28.0550,-2338.95,0
28.0600,-2338.95,0
28.0650,-2223.87,0
28.0700,-2223.87,0
28.0750,-1963.28,0
28.0800,-1963.28,0
28.0850,-2012.61,0
28.0900,-2012.61,0
28.0950,-2012.61,0
28.1000,-1952.12,0
28.1050,-1292.02,0
28.1100,-1292.02,0
28.1150,-625.22,0
28.1200,-625.22,0
28.1250,-625.22,0
28.1300,-625.22,0
28.1350,-130.38,0
28.1400,-130.38,0
28.1450,-130.38,0
28.1500,262.61,0
28.1550,262.61,0
28.1600,18.32,0
28.1650,18.32,0
28.1700,18.32,0
28.1750,18.32,0
28.1800,-2097.63,0
28.1850,-435.33,0
28.1900,88.06,0
28.1950,-304.35,0
28.2000,228.47,0
28.2050,228.47,0
28.2100,-1024.90,0
28.2150,356.63,0
28.2200,356.63,0
28.2250,-2218.21,0
28.2300,262.59,0
28.2350,5.16,0
28.2400,-1885.78,0
28.2450,495.76,0
28.2500,135.63,0
28.2550,226.65,0
28.2600,176.93,0
28.2650,120.53,0
28.2700,48.86,0
28.2750,48.86,0
28.2800,48.86,0
28.2850,315.57,0
28.2900,-144.99,0
28.2950,1096.96,0
28.3000,213.51,0
28.3050,1398.91,0
28.3100,1346.19,0
28.3150,1346.19,0
28.3200,965.42,0
28.3250,965.42,0
28.3300,1126.37,0
28.3350,1126.37,0
28.3400,1349.68,0
28.3450,1349.68,0
28.3500,1059.55,0
28.3550,1059.55,0
28.3600,965.42,0
28.3650,1629.55,0
28.3700,1464.67,0
28.3750,1464.67,0
28.3800,786.41,0
28.3850,786.41,0
28.3900,786.41,0
28.3950,786.41,0
28.4000,1059.55,0
28.4050,1507.53,0
28.4100,1124.01,0
28.4150,1124.01,0
28.4200,181.32,0
28.4250,558.11,0
28.4300,1506.02,0
28.4350,925.10,0
28.4400,925.10,0
28.4450,515.04,0
28.4500,459.62,0
28.4550,-64.79,0
28.4600,-64.79,0
28.4650,184.24,0
28.4700,298.40,0
28.4750,298.40,0
28.4800,298.40,0
28.4850,-314.51,0
28.4900,-536.26,0
28.4950,1464.86,0
28.5000,-536.26,0
28.5050,60.61,0
28.5100,-777.29,0
28.5150,-858.02,0
28.5200,-858.02,0
28.5250,-969.89,0
28.5300,-969.89,0
28.5350,-1363.61,0
28.5400,-1363.61,0
28.5450,-1630.72,0
28.5500,-1561.35,0
28.5550,-1561.35,0
28.5600,-1561.35,0
28.5650,-1561.35,0
28.5700,-2170.44,0
28.5750,-2170.44,0
28.5800,-2808.60,0
28.5850,-2808.60,0
28.5900,-1630.72,0
28.5950,-2164.24,0
28.6000,-1916.37,0
28.6050,-1916.37,0
28.6100,-2498.44,0
28.6150,-2498.44,0
28.6200,-2498.44,0
28.6250,-2736.78,0
28.6300,-2164.24,0
28.6350,-2928.58,0
28.6400,-2170.44,0
28.6450,-969.92,0
28.6500,-3112.58,0
28.6550,-3233.29,0
28.6600,-3269.25,0
28.6650,-1887.73,0
28.6700,-1887.73,0
28.6750,-1887.73,0
28.6800,-2182.59,0
28.6850,-2182.59,0
28.6900,-2068.55,0
28.6950,-2068.55,0
28.7000,-1692.84,0
28.7050,-1692.84,0
28.7100,-1538.45,0
28.7150,-1538.45,0
28.7200,-1538.45,0
28.7250,-1538.45,0
28.7300,-937.99,0
28.7350,-3233.28,0
28.7400,-1229.68,0
28.7450,-1229.68,0
28.7500,-1670.77,0
28.7550,-1229.68,0
28.7600,-806.05,0
28.7650,-2489.64,0
28.7700,-2374.45,0
28.7750,-2374.45,0
28.7800,-1843.20,0
28.7850,-1843.20,0
28.7900,-1804.27,0
28.7950,-1804.27,0
28.8000,-1696.75,0
28.8050,-1696.75,0
28.8100,-3070.48,0
28.8150,-1412.79,0
28.8200,-2077.27,0
28.8250,-2077.27,0
28.8300,-2609.31,0
28.8350,-1641.87,0
28.8400,-2157.30,0
28.8450,-2157.30,0
28.8500,-1625.31,0
28.8550,-1625.31,0
28.8600,-2387.22,0
28.8650,-2387.22,0
28.8700,-2387.22,0
28.8750,-2387.22,0
28.8800,-1941.78,0
28.8850,-1941.78,0
28.8900,-2130.83,0
28.8950,-2130.83,0
28.9000,-1461.17,0
28.9050,-1431.79,0
28.9100,-1431.79,0
28.9150,-1431.79,0
28.9200,-1431.79,0
28.9250,-216.24,0
28.9300,-216.24,0
28.9350,-466.94,0
28.9400,-466.94,0
28.9450,-466.94,0
28.9500,370.52,0
28.9550,724.12,0
28.9600,724.12,0
28.9650,987.72,0
28.9700,878.30,0
28.9750,-2130.86,0
28.9800,592.17,0
28.9850,592.17,0
28.9900,264.35,0
28.9950,-2128.70,0
29.0000,231.36,0
29.0050,231.36,0
29.0100,1185.92,0
29.0150,1185.92,0
29.0200,1313.77,0
29.0250,1415.93,0
29.0300,1415.93,0
29.0350,1415.93,0
29.0400,1415.93,0
29.0450,1415.93,0
29.0500,-2517.56,0
29.0550,1059.19,0
29.0600,1248.71,0
29.0650,1248.71,0
29.0700,1279.85,0
29.0750,1279.85,0
29.0800,1441.22,0
29.0850,1441.22,0
29.0900,1441.22,0
29.0950,1441.22,0
29.1000,1520.64,0
29.1050,1501.07,0
29.1100,-941.94,0
29.1150,1309.16,0
29.1200,1309.16,0
29.1250,1309.16,0
29.1300,1441.22,0
29.1350,1239.86,0
29.1400,882.75,0
29.1450,1563.74,0
29.1500,1563.74,0
29.1550,123.43,0
29.1600,1532.96,0
29.1650,1497.30,0
29.1700,1497.30,0
29.1750,1559.89,0
29.1800,1559.89,0
29.1850,1564.89,0
29.1900,1564.89,0
29.1950,1539.36,0
29.2000,1539.36,0
29.2050,1565.42,0
29.2100,1565.42,0
29.2150,625.49,0
29.2200,1364.01,0
29.2250,1512.53,0
29.2300,1512.53,0
29.2350,1869.09,0
29.2400,1869.09,0
29.2450,1060.16,0
29.2500,1060.16,0
29.2550,1574.64,0
29.2600,1060.16,0
29.2650,1588.48,0
29.2700,1588.48,0
29.2750,1323.09,0
29.2800,1323.09,0
29.2850,1323.09,1
29.2900,1507.86,0
29.2950,1679.06,0
29.3000,1588.48,0
29.3050,1181.39,0
29.3100,1104.26,0
29.3150,1060.16,0
29.3200,1550.62,0
29.3250,1022.06,0
29.3300,1022.06,0
29.3350,1385.50,0
29.3400,1385.50,0
29.3450,1022.06,0
29.3500,894.15,0
29.3550,894.15,0
29.3600,894.15,0
29.3650,1432.16,0
29.3700,902.58,0
29.3750,-1512.63,0
29.3800,-1512.63,0
29.3850,-1855.16,0
29.3900,-1855.16,0
29.3950,-1855.16,0
29.4000,-1855.16,0
29.4050,-1572.67,0
29.4100,1679.04,0
29.4150,-1430.85,0
29.4200,-1331.84,0
29.4250,-1331.84,0
29.4300,1267.81,0
29.4350,-1788.19,0
29.4400,-1162.18,0
29.4450,-1788.19,0
29.4500,-1788.19,0
29.4550,1311.35,0
29.4600,-1176.12,0
29.4650,-1007.57,0
29.4700,-717.21,0
29.4750,-717.21,0
29.4800,-416.86,0
29.4850,-416.86,0
29.4900,-416.86,0
29.4950,-416.86,0
29.5000,-250.58,0
29.5050,-250.58,0
29.5100,-383.68,0
29.5150,-383.68,0
29.5200,-600.05,0
29.5250,-600.05,0
29.5300,-1034.80,0
29.5350,-1034.80,0
29.5400,-801.01,0
29.5450,-801.01,0
29.5500,-160.37,0
29.5550,-226.00,0
29.5600,537.07,0
29.5650,537.07,0
29.5700,-745.48,0
29.5750,-1412.71,0
29.5800,508.24,0
29.5850,508.24,0
29.5900,237.62,0
29.5950,237.62,0
29.6000,-455.88,0
29.6050,-455.88,0
29.6100,-455.88,0
29.6150,-455.88,0
29.6200,-376.61,0
29.6250,-376.61,0
29.6300,-100.57,0
29.6350,-100.57,0
29.6400,-827.12,0
29.6450,-523.22,0
29.6500,-1120.15,0
29.6550,-1120.15,0
29.6600,-1517.03,0
29.6650,-1517.03,0
29.6700,-1595.04,0
29.6750,-258.45,0
29.6800,-1244.77,0
29.6850,-1244.77,0
29.6900,-1244.77,0
29.6950,-1244.77,0
29.7000,-1228.56,0
29.7050,-1228.56,0
29.7100,-1907.59,0
29.7150,-1907.59,0
29.7200,-1224.41,0
29.7250,-1907.59,0
29.7300,-1986.36,0
29.7350,-1986.36,0
29.7400,-2167.49,0
29.7450,-2167.49,0
29.7500,8.24,0
29.7550,-1799.78,0
29.7600,-2049.72,0
29.7650,-2049.72,0
29.7700,-2170.38,0
29.7750,-2170.38,0
29.7800,-1228.57,0
29.7850,-1970.37,0
29.7900,-1665.46,0
29.7950,-1665.46,0
29.8000,-2130.48,0
29.8050,-2130.48,0
29.8100,-2176.92,0
29.8150,-2176.92,0
29.8200,-2418.78,0
29.8250,-2418.78,0
29.8300,-2584.38,0
29.8350,-2657.17,0
29.8400,-2657.17,0
29.8450,-1276.74,0
29.8500,-2495.74,0
29.8550,-2495.74,0
29.8600,-2495.74,0
29.8650,-2495.74,0
29.8700,-2495.74,0
29.8750,-1876.27,0
29.8800,-1876.27,0
29.8850,-1809.86,0
29.8900,-1809.86,0
29.8950,-2255.14,0
29.9000,-2255.14,0
29.9050,-2115.44,0
29.9100,-2115.44,0
29.9150,-1751.28,0
29.9200,-1751.28,0
29.9250,-1751.28,0
29.9300,-1751.28,0
29.9350,-2090.86,0
29.9400,-2090.86,0
29.9450,-1715.43,0
29.9500,-1715.43,0
29.9550,-1932.51,0
29.9600,-1932.51,0
29.9650,-1439.69,0
29.9700,-1439.69,0
29.9750,-1439.69,0
29.9800,-1439.69,0
29.9850,-660.68,0
29.9900,-660.68,0
29.9950,-978.49,0
30.0000,-978.49,0
30.0050,-545.98,0
30.0100,-545.98,0
30.0150,25.91,0
30.0200,25.91,0
30.0250,25.91,0
30.0300,25.91,0
30.0350,152.57,0
30.0400,152.57,0
30.0450,554.98,0
30.0500,1139.94,0
30.0550,1139.94,0
30.0600,1465.51,0
30.0650,1465.51,0
30.0700,1465.51,0
30.0750,1465.51,0
30.0800,1540.52,0
30.0850,1540.52,0
30.0900,1672.84,0
30.0950,1139.94,0
30.1000,-1450.47,0
30.1050,-867.27,0
30.1100,-1896.25,0
30.1150,1730.38,0
30.1200,1730.38,0
30.1250,1730.38,0
30.1300,1730.38,0
30.1350,1706.81,0
30.1400,1706.81,0
30.1450,1706.81,0
30.1500,1968.51,0
30.1550,1419.85,0
30.1600,1260.47,0
30.1650,1260.47,0
30.1700,1260.47,0
30.1750,1260.47,0
30.1800,899.95,0
30.1850,899.95,0
30.1900,-46.90,0
30.1950,-46.90,0
30.2000,-593.37,0
30.2050,-593.37,0
30.2100,-593.37,0
30.2150,-217.97,0
30.2200,-217.97,0
30.2250,-603.10,0
30.2300,-603.10,0
30.2350,-321.62,0
30.2400,-321.62,0
30.2450,-234.43,0
30.2500,1978.57,0
30.2550,-234.43,0
30.2600,-234.43,0
30.2650,-140.53,0
30.2700,-140.53,0
30.2750,-255.99,0
30.2800,-255.99,0
30.2850,900.05,0
30.2900,386.82,0
30.2950,501.29,0
30.3000,-97.76,0
30.3050,1125.74,0
30.3100,1125.74,0
30.3150,1765.69,0
30.3200,1765.69,0
30.3250,1909.16,0
30.3300,1821.00,0
30.3350,912.91,0
30.3400,1901.93,0
30.3450,-140.54,0
30.3500,1935.26,0
30.3550,1935.26,0
30.3600,1941.52,0
30.3650,1914.52,0
30.3700,2038.47,0
30.3750,1125.74,0
30.3800,2038.47,0
30.3850,2038.47,0
30.3900,1983.23,0
30.3950,1983.23,0
30.4000,1935.16,0
30.4050,1961.11,0
30.4100,1961.11,0
30.4150,1890.57,0
30.4200,2055.49,0
30.4250,1948.24,0
30.4300,1948.24,0
30.4350,2016.88,0
30.4400,1935.25,0
30.4450,1921.15,0
30.4500,1981.75,0
30.4550,2173.88,0
30.4600,1921.15,0
30.4650,2141.47,0
30.4700,2141.47,0
30.4750,2141.47,0
30.4800,2141.47,0
30.4850,2194.32,0
30.4900,2194.32,0
30.4950,2057.32,0
30.5000,1837.54,0
30.5050,2088.47,0
30.5100,2088.47,0
30.5150,2222.44,0
30.5200,2222.44,0
30.5250,2491.55,0
30.5300,2491.55,0
30.5350,2767.17,0
30.5400,2767.17,0
30.5450,2428.71,0
30.5500,2428.71,0
30.5550,1423.26,0
30.5600,1423.26,0
30.5650,1556.18,0
30.5700,1556.18,0
30.5750,1556.18,0
30.5800,1556.18,0
30.5850,1986.63,0
30.5900,1986.63,0
30.5950,2113.38,0
30.6000,2132.82,0
30.6050,2124.11,0
30.6100,2017.14,0
30.6150,2017.14,0
30.6200,2017.14,0
30.6250,2193.08,0
30.6300,2124.11,0
30.6350,2146.31,0
30.6400,2187.25,0
30.6450,2767.28,0
30.6500,2194.15,0
30.6550,2194.15,0
30.6600,2116.01,0
30.6650,2060.24,0
30.6700,2063.23,0
30.6750,2693.80,0
30.6800,1947.15,0
30.6850,1947.15,0
30.6900,1908.00,0
30.6950,1908.00,0
30.7000,2331.53,0
30.7050,2116.01,0
30.7100,1835.32,0
30.7150,1835.32,0
30.7200,1869.84,0
30.7250,1869.84,0
30.7300,1796.23,0
30.7350,1796.23,0
30.7400,1796.23,0
30.7450,1796.23,0
30.7500,1796.23,0
30.7550,1832.45,0
30.7600,1846.26,0
30.7650,1846.26,0
30.7700,1913.71,0
30.7750,1913.71,0
30.7800,1913.71,0
30.7850,1898.07,0
30.7900,1898.07,0
30.7950,1898.07,0
30.8000,1898.07,0
30.8050,1898.07,0
30.8100,1898.07,0
30.8150,1982.65,0
30.8200,1905.70,0
30.8250,1921.34,0
30.8300,1921.34,0
30.8350,1992.81,0
30.8400,1992.81,0
30.8450,1992.81,0
30.8500,1992.81,0
30.8550,2012.14,0
30.8600,2012.14,0
30.8650,1932.64,0
30.8700,1932.64,0
30.8750,1915.22,0
30.8800,1891.75,0
30.8850,1675.16,0
30.8900,1891.75,0
30.8950,1895.99,0
30.9000,1891.75,0
30.9050,1981.52,0
30.9100,1981.52,0
30.9150,1964.79,0
30.9200,1899.34,0
30.9250,1844.64,0
30.9300,1899.34,0
30.9350,1866.32,0
30.9400,1956.53,0
30.9450,1956.53,0
30.9500,2103.85,0
30.9550,2103.85,0
30.9600,2296.90,0
30.9650,2296.90,0
30.9700,2920.59,0
30.9750,2920.59,0
30.9800,2879.02,0
30.9850,2879.02,0
30.9900,3057.36,0
30.9950,3057.36,0
31.0000,2759.18,0
31.0050,2759.18,0
31.0100,2093.83,0
31.0150,2093.83,0
31.0200,2093.83,0
31.0250,2093.83,0
31.0300,2362.52,0
31.0350,1942.21,0
31.0400,2477.89,0
31.0450,2477.89,0
31.0500,2558.40,0
31.0550,2477.89,0
31.0600,3057.36,0
31.0650,2956.01,0
31.0700,3187.77,0
31.0750,3187.77,0
31.0800,3056.66,0
31.0850,3098.20,0
31.0900,3767.70,0
31.0950,3767.70,0
31.1000,2956.01,0
31.1050,3884.83,0
31.1100,3496.97,0
31.1150,3496.97,0
31.1200,2973.57,0
31.1250,2973.57,0
31.1300,3331.78,0
31.1350,3331.78,0
31.1400,3582.81,0
31.1450,3845.10,0
31.1500,3845.10,0
31.1550,4093.26,0
31.1600,4093.26,0
31.1650,4093.26,0
31.1700,4093.26,0
31.1750,4093.26,0
31.1800,3694.38,0
31.1850,3694.38,0
31.1900,4254.83,0
31.1950,4254.83,0
31.2000,4303.61,0
31.2050,3581.34,0
31.2100,3581.34,0
31.2150,3581.34,0
31.2200,3581.34,0
31.2250,3581.34,0
31.2300,3416.81,0
31.2350,3416.81,0
31.2400,3034.12,0
31.2450,3034.12,0
31.2500,2923.24,0
31.2550,2923.24,0
31.2600,3977.01,0
31.2650,2374.88,0
31.2700,2374.88,0
31.2750,2374.88,0
31.2800,2151.84,0
31.2850,3322.64,0
31.2900,2403.90,0
31.2950,2403.90,0
31.3000,2497.76,0
31.3050,2386.19,0
31.3100,2637.90,0
31.3150,2637.90,0
31.3200,2637.90,0
31.3250,2637.90,0
31.3300,3397.29,0
31.3350,2985.04,0
31.3400,2985.04,0
31.3450,2985.04,0
31.3500,2573.88,0
31.3550,3068.68,0
31.3600,3068.68,0
31.3650,3362.74,0
31.3700,3362.74,0
31.3750,3091.23,0
31.3800,3091.23,0
31.3850,3452.18,0
31.3900,3452.18,0
31.3950,3982.11,0
31.4000,3982.11,0
31.4050,4240.76,0
31.4100,4240.76,0
31.4150,4012.46,0
31.4200,4240.76,0
31.4250,4350.53,0
31.4300,4350.53,0
31.4350,4402.29,0
31.4400,4402.29,0
31.4450,4212.46,0
31.4500,2488.18,0
31.4550,4601.89,0
31.4600,4601.89,0
31.4650,4997.90,0
31.4700,4997.90,0
31.4750,4721.73,0
31.4800,4721.73,0
31.4850,4721.73,0
31.4900,4861.49,0
31.4950,4861.49,0
31.5000,4844.73,0
31.5050,4844.73,0
31.5100,4844.73,0
31.5150,4844.73,0
31.5200,4855.62,0
31.5250,4855.62,0
31.5300,4915.19,0
31.5350,4915.19,0
31.5400,4969.19,0
31.5450,4969.19,0
31.5500,4984.36,0
31.5550,4984.36,0
31.5600,5008.00,0
31.5650,5008.00,0
31.5700,5008.00,0
31.5750,5038.29,0
31.5800,5038.29,0
31.5850,3379.43,0
31.5900,4985.02,0
31.5950,5002.93,0
31.6000,5002.93,0
31.6050,5001.84,0
31.6100,5001.84,0
31.6150,5068.47,0
31.6200,5024.71,0
31.6250,5080.83,0
31.6300,4984.37,0
31.6350,5132.60,0
31.6400,5036.89,0
31.6450,5018.99,0
31.6500,5342.16,0
31.6550,5342.16,0
31.6600,5569.96,0
31.6650,5767.73,0
31.6700,5767.73,0
31.6750,5483.50,0
31.6800,5483.50,0
31.6850,5483.50,0
31.6900,5483.50,0
31.6950,4965.59,0
31.7000,4823.81,0
31.7050,4823.81,0
31.7100,4823.81,0
31.7150,4955.94,0
31.7200,4955.94,0
31.7250,4980.15,0
31.7300,4980.15,0
31.7350,4980.15,0
31.7400,4980.15,0
31.7450,4728.61,0
31.7500,4728.61,0
31.7550,4659.16,0
31.7600,4659.16,0
31.7650,4469.60,0
31.7700,4469.60,0
31.7750,4561.75,0
31.7800,4561.75,0
31.7850,4442.76,0
31.7900,4324.13,0
31.7950,4324.13,0
31.8000,4324.13,0
31.8050,5732.40,0
31.8100,4340.16,0
31.8150,4340.16,0
31.8200,4990.04,0
31.8250,4641.83,0
31.8300,4641.83,0
31.8350,4641.83,0
31.8400,4697.60,0
31.8450,543.66,0
31.8500,4426.22,0
31.8550,401.90,0
31.8600,401.90,0
31.8650,208.10,0
31.8700,5638.65,0
31.8750,-130.99,0
31.8800,-130.99,0
31.8850,-14.44,0
31.8900,-14.44,0
31.8950,-14.44,0
31.9000,4911.52,0
31.9050,41.66,0
31.9100,41.66,0
31.9150,9.68,0
31.9200,9.68,0
31.9250,-126.07,0
31.9300,-126.07,0
31.9350,-174.85,0
31.9400,-174.85,0
31.9450,-174.85,0
31.9500,-174.85,0
31.9550,-174.85,0
31.9600,-174.85,0
31.9650,29.67,0
31.9700,29.67,0
31.9750,49.74,0
31.9800,49.74,0
31.9850,4078.89,0
31.9900,-66.74,0
31.9950,-66.74,0
32.0000,-66.74,0
32.0050,-66.74,0
32.0100,-66.74,0
32.0150,22.26,0
32.0200,-74.41,0
32.0250,53.52,0
32.0300,53.52,0
32.0350,89.50,0
32.0400,89.50,0
32.0450,98.79,0
32.0500,98.79,0
32.0550,98.79,0
32.0600,98.79,0
32.0650,102.21,0
32.0700,142.27,0
32.0750,22.29,0
32.0800,197.19,0
32.0850,213.88,0
32.0900,119.80,0
32.0950,119.80,0
32.1000,119.80,0
32.1050,-53.38,0
32.1100,-53.38,0
32.1150,-53.38,0
32.1200,-53.38,0
32.1250,25.50,0
32.1300,15.98,0
32.1350,15.98,0
32.1400,0.58,0
32.1450,0.58,0
32.1500,-9.22,0
32.1550,-18.82,0
32.1600,-9.22,0
32.1650,-9.22,0
32.1700,-9.22,0
32.1750,-6.21,0
32.1800,66.76,0
32.1850,66.76,0
32.1900,107.10,0
32.1950,107.10,0
32.2000,-5.18,0
32.2050,-5.18,0
32.2100,13.18,0
32.2150,-5.18,0
32.2200,-138.80,0
32.2250,-138.80,0
32.2300,-345.26,0
32.2350,-345.26,0
32.2400,-345.26,0
32.2450,-461.50,0
32.2500,-461.50,0
32.2550,-359.80,0
32.2600,-604.38,0
32.2650,-604.38,0
32.2700,-604.38,0
32.2750,-777.66,0
32.2800,-777.66,0
32.2850,-892.42,0
32.2900,-892.42,0
32.2950,-407.05,0
32.3000,-407.05,0
32.3050,22.51,0
32.3100,-475.35,0
32.3150,-386.57,0
32.3200,-386.57,0
32.3250,-966.39,0
32.3300,-966.39,0
32.3350,-844.12,0
32.3400,-844.12,0
32.3450,-673.25,0
32.3500,-673.25,0
32.3550,-34.53,0
32.3600,-465.95,0
32.3650,-465.95,0
32.3700,-465.95,0
32.3750,-465.95,0
32.3800,-465.95,0
32.3850,-907.60,0
32.3900,-907.60,0
32.3950,-333.66,0
32.4000,-333.66,0
32.4050,-26.03,0
32.4100,-26.03,0
32.4150,396.49,0
32.4200,396.49,0
32.4250,303.28,0
32.4300,303.28,0
32.4350,303.28,0
32.4400,303.28,0
32.4450,880.88,0
32.4500,880.88,0
32.4550,-386.17,0
32.4600,1323.39,0
32.4650,1323.39,0
32.4700,1493.79,0
32.4750,1493.79,0
32.4800,1493.79,0
32.4850,1493.79,0
32.4900,1096.91,0
32.4950,1096.91,0
32.5000,1385.14,0
32.5050,1385.14,0
32.5100,1530.79,0
32.5150,1530.79,0
32.5200,977.84,0
32.5250,977.84,0
32.5300,977.84,0
32.5350,977.84,0
32.5400,1257.96,0
32.5450,1432.90,0
32.5500,1333.73,0
32.5550,1333.73,0
32.5600,1093.53,0
32.5650,1093.53,0
32.5700,1484.57,0
32.5750,1484.57,0
32.5800,1484.57,0
32.5850,1323.83,0
32.5900,2009.45,0
32.5950,2009.45,0
32.6000,1971.21,0
32.6050,1971.21,0
32.6100,1971.21,0
32.6150,1971.21,0
32.6200,1971.21,0
32.6250,1971.21,0
32.6300,2199.66,0
32.6350,291.69,0
32.6400,872.28,0
32.6450,1386.39,0
32.6500,1900.54,0
32.6550,1900.54,0
32.6600,1641.28,0
32.6650,556.88,0
32.6700,665.06,0
32.6750,665.06,0
32.6800,665.06,0
32.6850,1000.24,0
32.6900,1000.24,0
32.6950,2488.40,0
32.7000,2059.12,0
32.7050,2554.48,0
32.7100,2554.48,0
32.7150,2846.80,0
32.7200,2846.80,0
32.7250,3384.40,0
32.7300,3384.40,0
32.7350,3515.43,0
32.7400,3515.43,0
32.7450,3503.04,0
32.7500,3503.04,0
32.7550,3825.29,0
32.7600,2061.49,0
32.7650,3569.92,0
32.7700,3569.92,0
32.7750,3717.65,0
32.7800,3717.65,0
32.7850,3717.65,0
32.7900,2661.80,0
32.7950,2661.80,0
32.8000,2661.80,0
32.8050,3684.07,0
32.8100,3684.07,0
32.8150,3684.07,0
32.8200,2488.52,0
32.8250,499.49,0
32.8300,3684.07,0
32.8350,2752.72,0
32.8400,3676.95,0
32.8450,3676.95,0
32.8500,3676.95,0
32.8550,3676.95,0
32.8600,3676.95,0
32.8650,830.90,0
32.8700,3676.95,0
32.8750,3872.54,0
32.8800,3872.54,0
32.8850,4204.22,0
32.8900,4204.22,0
32.8950,4821.94,0
32.9000,4821.94,0
32.9050,4298.97,0
32.9100,4298.97,0
32.9150,3813.66,0
32.9200,3562.02,0
32.9250,3762.14,0
32.9300,4371.09,0
32.9350,4371.09,0
32.9400,5517.05,0
32.9450,5517.05,0
32.9500,2999.45,0
32.9550,5663.35,0
32.9600,4703.71,0
32.9650,5663.35,0
32.9700,4375.99,0
32.9750,4375.99,0
32.9800,4246.34,0
32.9850,4246.34,0
32.9900,3852.70,0
32.9950,3852.70,0
33.0000,3844.59,0
33.0050,3844.59,0
33.0100,4421.87,0
33.0150,2450.80,0
33.0200,4500.60,0
33.0250,4500.60,0
33.0300,4375.99,0
33.0350,4500.60,0
33.0400,4345.47,0
33.0450,4345.47,0
33.0500,4038.56,0
33.0550,4038.56,0
33.0600,3625.01,0
33.0650,3625.01,0
33.0700,3625.01,0
33.0750,4166.65,0
33.0800,3852.68,0
33.0850,4689.22,0
33.0900,3766.26,0
33.0950,3985.34,0
33.1000,3985.34,0
33.1050,4109.60,0
33.1100,4109.60,0
33.1150,3853.83,0
33.1200,5394.58,0
33.1250,5736.36,0
33.1300,5736.36,0
33.1350,5696.20,0
33.1400,5696.20,0
33.1450,5653.41,0
33.1500,5653.41,0
33.1550,5653.41,0
33.1600,5653.41,0
33.1650,3773.66,0
33.1700,4391.92,0
33.1750,5874.00,0
33.1800,5874.00,0
33.1850,5526.46,0
33.1900,5526.46,0
33.1950,5904.51,0
33.2000,5904.51,0
33.2050,5904.51,0
33.2100,5904.51,0
33.2150,5866.40,0
33.2200,5866.40,0
33.2250,3718.93,0
33.2300,6004.11,0
33.2350,5593.80,0
33.2400,5593.80,0
33.2450,6101.31,0
33.2500,5535.52,0
33.2550,6101.31,0
33.2600,6101.31,0
33.2650,6682.67,0
33.2700,6682.67,0
33.2750,6682.67,0
33.2800,6259.18,0
33.2850,6259.18,0
33.2900,6374.73,0
33.2950,6374.73,0
33.3000,6374.73,0
33.3050,6439.60,0
33.3100,6310.25,0
33.3150,6310.25,0
33.3200,6310.25,0
33.3250,5657.65,0
33.3300,5657.65,0
33.3350,6605.76,0
33.3400,6605.76,0
33.3450,5862.85,0
33.3500,6875.20,0
33.3550,6377.12,0
33.3600,6377.12,0
33.3650,5623.32,0
33.3700,5623.32,0
33.3750,6207.08,0
33.3800,6207.08,0
33.3850,6828.11,0
33.3900,5623.32,0
33.3950,6373.80,0
33.4000,6373.80,0
33.4050,6373.80,0
33.4100,6373.80,0
33.4150,5795.63,0
33.4200,6642.20,0
33.4250,6642.20,0
33.4300,6642.20,0
33.4350,6356.85,0
33.4400,6356.85,0
33.4450,5622.24,0
33.4500,5823.90,0
33.4550,6182.97,0
33.4600,6182.97,0
33.4650,5848.13,0
33.4700,5848.13,0
33.4750,-916.61,0
33.4800,-1305.44,0
33.4850,-1305.44,0
33.4900,-444.52,0
33.4950,-444.52,0
33.5000,-916.61,0
33.5050,-176.01,0
33.5100,-176.01,0
33.5150,-176.01,0
33.5200,-176.01,0
33.5250,-176.01,0
33.5300,104.88,0
33.5350,104.88,0
33.5400,766.45,0
33.5450,766.45,0
33.5500,1384.49,0
33.5550,1384.49,0
33.5600,1384.49,0
33.5650,1384.49,0
33.5700,880.67,0
33.5750,880.67,0
33.5800,1595.44,0
33.5850,1595.44,0
33.5900,1752.67,0
33.5950,1752.67,0
33.6000,2992.41,0
33.6050,2992.41,0
33.6100,2992.41,0
33.6150,2992.41,0
33.6200,3507.54,0
33.6250,3507.54,0
33.6300,3693.21,0
33.6350,3693.21,0
33.6400,3986.93,0
33.6450,3807.60,0
33.6500,3807.60,0
33.6550,3807.60,0
33.6600,3693.21,0
33.6650,4664.37,0
33.6700,4664.37,0
33.6750,4529.77,0
33.6800,5381.76,0
33.6850,5839.40,0
33.6900,5839.40,0
33.6950,6509.59,0
33.7000,6509.59,0
33.7050,6509.59,0
33.7100,3155.04,0
33.7150,6646.70,0
33.7200,7377.37,0
33.7250,1752.42,0
33.7300,7377.37,0
33.7350,7792.58,0
33.7400,4914.45,0
33.7450,8638.28,0
33.7500,1283.92,0
33.7550,9343.47,0
33.7600,9343.47,0
33.7650,9903.16,0
33.7700,9903.16,0
33.7750,9778.97,0
33.7800,3045.98,0
33.7850,10587.40,0
33.7900,10587.40,0
33.7950,11207.55,0
33.8000,6646.73,0
33.8050,10824.47,0
33.8100,11207.55,0
33.8150,11207.55,0
33.8200,11207.55,0
33.8250,11207.55,0
33.8300,11609.00,0
33.8350,11609.00,0
33.8400,12177.64,0
33.8450,12177.64,0
33.8500,11867.47,0
33.8550,11867.47,0
33.8600,11867.47,0
33.8650,11561.83,0
33.8700,12518.43,0
33.8750,12518.43,0
33.8800,12518.43,0
33.8850,12518.43,0
33.8900,12518.43,0
33.8950,12621.59,0
33.9000,12621.59,0
33.9050,12621.59,0
33.9100,13465.75,0
33.9150,13465.75,0
33.9200,14071.64,0
33.9250,14071.64,0
33.9300,13778.53,0
33.9350,13602.88,0
33.9400,13472.40,0
33.9450,13602.88,0
33.9500,10556.56,0
33.9550,15072.93,0
33.9600,15072.93,0
33.9650,14741.39,0
33.9700,14741.39,0
33.9750,14582.88,0
33.9800,14582.88,0
33.9850,15286.83,0
33.9900,15286.83,0
33.9950,15395.92,0
34.0000,15395.92,0
34.0050,12543.54,0
34.0100,15668.61,0
34.0150,15547.00,0
34.0200,15547.00,0
34.0250,16404.62,0
34.0300,16404.62,0
34.0350,13018.27,0
34.0400,17029.18,0
34.0450,17029.18,0
34.0500,17029.18,0
34.0550,17029.18,0
34.0600,16541.11,0
34.0650,16541.11,0
34.0700,17234.30,0
34.0750,17234.30,0
34.0800,13482.39,0
34.0850,16947.13,0
34.0900,15065.24,0
34.0950,17719.27,0
34.1000,17494.42,0
34.1050,17560.37,0
34.1100,18203.88,0
34.1150,18336.56,0
34.1200,18336.56,0
34.1250,18203.88,0
34.1300,17496.37,0
34.1350,17496.37,0
34.1400,19864.32,0
34.1450,19864.32,0
34.1500,19864.32,0
34.1550,20663.21,0
34.1600,20663.21,0
34.1650,20663.21,0
34.1700,20663.21,0
34.1750,20663.21,0
34.1800,20663.21,0
34.1850,20663.21,0
34.1900,20663.21,0
34.1950,20008.18,0
34.2000,15991.90,0
34.2050,15320.09,0
34.2100,19847.93,0
34.2150,19847.93,0
34.2200,20708.49,0
34.2250,20708.49,0
34.2300,20753.36,0
34.2350,16988.13,0
34.2400,20529.57,0
34.2450,20529.57,0
34.2500,20498.48,0
34.2550,20498.48,0
34.2600,20498.48,0
34.2650,20498.48,0
34.2700,20535.93,0
34.2750,20535.93,0
34.2800,168.04,0
34.2850,168.04,0
34.2900,168.04,1
34.2950,168.04,0
34.3000,-404.48,0
34.3050,-404.48,0
34.3100,-35.95,0
34.3150,-35.95,0
34.3200,1.44,0
34.3250,1.44,0
34.3300,220.30,0
34.3350,220.30,0
34.3400,296.39,0
34.3450,296.39,0
34.3500,296.39,0
34.3550,296.39,0
34.3600,10824.57,0
34.3650,-37.76,0
34.3700,-37.76,0
34.3750,-25.12,0
34.3800,-25.12,0
34.3850,16.56,0
34.3900,16.56,0
34.3950,80.07,0
34.4000,80.07,0
34.4050,8.14,0
34.4100,8.14,0
34.4150,80.79,0
34.4200,80.79,0
34.4250,3.71,0
34.4300,3.71,0
34.4350,104.42,0
34.4400,55.66,0
34.4450,2.55,0
34.4500,2.55,0
34.4550,1754.48,0
34.4600,16.61,0
34.4650,127.71,0
34.4700,61.13,0
34.4750,61.13,0
34.4800,32.67,0
34.4850,32.67,0
34.4900,116.01,0
34.4950,116.01,0
34.5000,2.55,0
34.5050,52.71,0
34.5100,48.91,0
34.5150,48.91,0
34.5200,48.91,0
34.5250,62.09,0
34.5300,62.09,0
34.5350,-24.76,0
34.5400,-12.72,0
34.5450,-53.91,0
34.5500,-53.91,0
34.5550,-27.46,0
34.5600,-31.22,0
34.5650,-31.22,0
34.5700,-31.22,0
34.5750,-31.22,0
34.5800,-31.22,0
34.5850,37.13,0
34.5900,78.53,0
34.5950,62.79,0
34.6000,52.25,0
34.6050,89.80,0
34.6100,89.80,0
34.6150,68.46,0
34.6200,88.54,0
34.6250,89.80,0
34.6300,275.57,0
34.6350,275.57,0
34.6400,275.57,0
34.6450,1929.52,0
34.6500,78.53,0
34.6550,1018.98,0
34.6600,1018.98,0
34.6650,863.75,0
34.6700,863.75,0
34.6750,1334.74,0
34.6800,1334.74,0
34.6850,1303.20,0
34.6900,1303.20,0
34.6950,1571.18,0
34.7000,1303.20,0
34.7050,-211.14,0
34.7100,-211.14,0
34.7150,-211.14,0
34.7200,-211.14,0
34.7250,75.36,0
34.7300,-557.79,0
34.7350,-557.79,0
34.7400,-557.79,0
34.7450,-557.79,0
34.7500,-557.79,0
34.7550,-654.47,0
34.7600,-654.47,0
34.7650,-267.34,0
34.7700,-267.34,0
34.7750,274.41,0
34.7800,274.41,0
34.7850,198.82,0
34.7900,198.82,0
34.7950,198.82,0
34.8000,367.40,0
34.8050,367.40,0
34.8100,491.64,0
34.8150,491.64,0
34.8200,205.94,0
34.8250,205.94,0
34.8300,384.73,0
34.8350,434.29,0
34.8400,434.29,0
34.8450,434.29,0
34.8500,944.23,0
34.8550,944.23,0
34.8600,1232.65,0
34.8650,1035.79,0
34.8700,1259.33,0
34.8750,741.65,0
34.8800,1245.91,0
34.8850,1245.91,0
34.8900,1245.91,0
34.8950,1245.91,0
34.9000,888.57,0
34.9050,375.35,0
34.9100,2214.30,0
34.9150,2214.30,0
34.9200,1281.99,0
34.9250,920.26,0
34.9300,920.26,0
34.9350,920.26,0
34.9400,920.26,0
34.9450,920.26,0
34.9500,1531.50,0
34.9550,660.57,0
34.9600,660.57,0
34.9650,523.13,0
34.9700,196.66,0
34.9750,-156.92,0
34.9800,-156.92,0
34.9850,-156.92,0
34.9900,-156.92,0
34.9950,1810.74,0
35.0000,-560.46,0
35.0050,-560.46,0
35.0100,-1004.16,0
35.0150,-1004.16,0
35.0200,-1592.32,0
35.0250,-1592.32,0
35.0300,-1255.20,0
35.0350,-1255.20,0
35.0400,-1255.20,0
35.0450,-1255.20,0
35.0500,-2615.40,0
35.0550,-2615.40,0
35.0600,-3192.12,0
35.0650,-3192.12,0
35.0700,-3192.12,0
35.0750,-3192.12,0
35.0800,-3814.36,0
35.0850,71.21,0
35.0900,-4721.72,0
35.0950,-4721.72,0
35.1000,-4721.72,0
35.1050,-4721.72,0
35.1100,79.81,0
35.1150,187.71,0
35.1200,402.80,0
35.1250,192.71,0
35.1300,519.13,0
35.1350,-3516.82,0
35.1400,943.55,0
35.1450,943.55,0
35.1500,943.55,0
35.1550,943.55,0
35.1600,535.38,0
35.1650,535.38,0
35.1700,535.38,0
35.1750,535.38,0
35.1800,104.52,0
35.1850,104.52,0
35.1900,-3516.84,0
35.1950,-192.69,0
35.2000,-192.69,0
35.2050,-192.69,0
35.2100,104.52,0
35.2150,-120.20,0
35.2200,-120.20,0
35.2250,-120.20,0
35.2300,573.38,0
35.2350,573.38,0
35.2400,597.90,0
35.2450,597.90,0
35.2500,597.90,0
35.2550,-2572.11,0
35.2600,597.90,0
35.2650,785.94,0
35.2700,785.94,0
35.2750,1525.40,0
35.2800,1525.40,0
35.2850,1525.40,0
35.2900,1693.73,0
35.2950,1693.73,0
35.3000,1640.38,0
35.3050,1721.62,0
35.3100,1721.62,0
35.3150,1721.62,0
35.3200,1527.57,0
35.3250,1527.57,0
35.3300,1691.73,0
35.3350,1691.73,0
35.3400,1598.86,0
35.3450,1598.86,0
35.3500,1736.97,0
35.3550,-201.74,0
35.3600,1900.83,0
35.3650,1549.41,0
35.3700,1549.41,0
35.3750,2330.11,0
35.3800,2330.11,0
35.3850,2136.79,0
35.3900,2136.79,0
35.3950,1943.14,0
35.4000,1943.14,0
35.4050,1926.29,0
35.4100,1926.29,0
35.4150,1926.29,0
35.4200,1926.29,0
35.4250,1926.29,0
35.4300,1926.29,0
35.4350,1740.38,0
35.4400,1080.42,0
35.4450,1691.90,0
35.4500,1500.35,0
35.4550,827.06,0
35.4600,827.06,0
35.4650,400.07,0
35.4700,400.07,0
35.4750,715.13,0
35.4800,715.13,0
35.4850,660.05,0
35.4900,660.05,0
35.4950,660.05,0
35.5000,-76.42,0
35.5050,-76.42,0
35.5100,-491.29,0
35.5150,-491.29,0
35.5200,-51.98,0
35.5250,-51.98,0
35.5300,508.19,0
35.5350,508.19,0
35.5400,508.19,0
35.5450,456.72,0
35.5500,508.19,0
35.5550,1189.68,0
35.5600,1068.27,0
35.5650,1068.27,0
35.5700,1172.00,0
35.5750,1172.00,0
35.5800,1172.00,0
35.5850,1023.83,0
35.5900,562.40,0
35.5950,1130.55,0
35.6000,1130.55,0
35.6050,1071.58,0
35.6100,1071.58,0
35.6150,1071.58,0
35.6200,1071.58,0
35.6250,1071.58,0
35.6300,1071.58,0
35.6350,153.39,0
35.6400,153.39,0
35.6450,-201.21,0
35.6500,-201.21,0
35.6550,-747.79,0
35.6600,-747.79,0
35.6650,-301.06,0
35.6700,-301.06,0
35.6750,-462.12,0
35.6800,-462.12,0
35.6850,-462.12,0
35.6900,-462.12,0
35.6950,562.41,0
35.7000,-801.13,0
35.7050,-801.13,0
35.7100,-910.96,0
35.7150,-910.96,0
35.7200,1535.49,0
35.7250,-1416.58,0
35.7300,-1344.51,0
35.7350,-608.72,0
35.7400,-608.72,0
35.7450,-1069.70,0
35.7500,-1069.70,0
35.7550,-1069.70,0
35.7600,-1069.70,0
35.7650,-1069.70,0
35.7700,-1336.67,0
35.7750,1165.46,0
35.7800,-894.52,0
35.7850,-689.62,0
35.7900,-1247.57,0
35.7950,-1167.59,0
35.8000,-1502.92,0
35.8050,-1392.16,0
35.8100,-1502.92,0
35.8150,-1502.92,0
35.8200,-1316.81,0
35.8250,-1316.81,0
35.8300,-1862.97,0
35.8350,-1316.81,0
35.8400,-2664.16,0
35.8450,-2664.16,0
35.8500,-2501.70,0
35.8550,-2501.70,0
35.8600,-2501.70,0
35.8650,-2501.70,0
35.8700,-3849.84,0
35.8750,-3849.84,0
35.8800,-3841.38,0
35.8850,-3447.01,0
35.8900,-3447.01,0
35.8950,-3311.66,0
35.9000,-3311.66,0
35.9050,-3311.66,0
35.9100,-3311.66,0
35.9150,-2808.18,0
35.9200,-2808.18,0
35.9250,-2808.18,0
35.9300,344.33,0
35.9350,344.33,0
35.9400,424.51,0
35.9450,-921.09,0
35.9500,1029.69,0
35.9550,1029.69,0
35.9600,1029.69,0
35.9650,720.16,0
35.9700,720.16,0
35.9750,-3454.03,0
35.9800,1270.31,0
35.9850,1270.31,0
35.9900,1576.24,0
35.9950,1634.83,0
36.0000,1634.83,0
36.0050,2182.92,0
36.0100,2182.92,0
36.0150,2182.92,0
36.0200,2182.92,0
36.0250,2182.92,0
36.0300,2182.92,0
36.0350,2166.15,0
36.0400,3077.61,0
36.0450,3077.61,0
36.0500,3077.61,0
36.0550,3077.61,0
36.0600,3077.61,0
36.0650,2469.94,0
36.0700,2631.27,0
36.0750,2631.27,0
36.0800,2631.27,0
36.0850,2630.91,0
36.0900,2630.91,0
36.0950,3056.77,0
36.1000,2974.49,0
36.1050,3114.54,0
36.1100,3114.54,0
36.1150,3431.59,0
36.1200,3431.59,0
36.1250,3537.91,0
36.1300,607.09,0
36.1350,4085.50,0
36.1400,4091.49,0
36.1450,4091.49,0
36.1500,3681.26,0
36.1550,4416.66,0
36.1600,1756.56,0
36.1650,2470.28,0
36.1700,2828.82,0
36.1750,5071.84,0
36.1800,5073.98,0
36.1850,5073.98,0
36.1900,5073.98,0
36.1950,5767.88,0
36.2000,5767.88,0
36.2050,5500.45,0
36.2100,2370.87,0
36.2150,5500.45,0
36.2200,5500.45,0
36.2250,6063.19,0
36.2300,6063.19,0
36.2350,6063.19,0
36.2400,6063.19,0
36.2450,6742.47,0
36.2500,6742.47,0
36.2550,7036.16,0
36.2600,7036.16,0
36.2650,7036.16,0
36.2700,7036.16,0
36.2750,7342.37,0
36.2800,7342.37,0
36.2850,7690.92,0
36.2900,5073.92,0
36.2950,6384.24,0
36.3000,8008.06,0
36.3050,8022.49,0
36.3100,8022.49,0
36.3150,8344.25,0
36.3200,8344.25,0
36.3250,8724.63,0
36.3300,8724.63,0
36.3350,8475.97,0
36.3400,8475.97,0
36.3450,9032.53,0
36.3500,9359.81,0
36.3550,9359.81,0
36.3600,9723.48,0
36.3650,5549.65,0
36.3700,9463.91,0
36.3750,9463.91,0
36.3800,10016.40,0
36.3850,10016.40,0
36.3900,10354.37,0
36.3950,10354.37,0
36.4000,10720.79,0
36.4050,10720.79,0
36.4100,11024.65,0
36.4150,10039.87,0
36.4200,8343.47,0
36.4250,11031.00,0
36.4300,11031.00,0
36.4350,11031.00,0
36.4400,8147.29,0
36.4450,11699.22,0
36.4500,8000.22,0
36.4550,11439.65,0
36.4600,12001.89,0
36.4650,12001.89,0
36.4700,11853.05,0
36.4750,8190.78,0
36.4800,8615.74,0
36.4850,11528.72,0
36.4900,11524.11,0
36.4950,11524.11,0
36.5000,11918.86,0
36.5050,779.88,0
36.5100,11844.40,0
36.5150,11844.40,0
36.5200,11535.68,0
36.5250,11535.68,0
36.5300,11932.76,0
36.5350,11932.76,0
36.5400,12046.47,0
36.5450,11157.47,0
36.5500,4486.96,0
36.5550,12046.47,0
36.5600,11521.66,0
36.5650,11521.66,0
36.5700,11521.66,0
36.5750,11587.16,0
36.5800,11587.16,0
36.5850,12071.55,0
36.5900,12004.74,0
36.5950,12071.55,0
36.6000,12071.55,0
36.6050,12071.55,0
36.6100,12071.55,0
36.6150,12071.55,0
36.6200,12071.55,0
36.6250,12509.36,0
36.6300,12509.36,0
36.6350,12378.88,0
36.6400,12603.66,0
36.6450,12603.66,0
36.6500,12603.66,0
36.6550,11760.04,0
36.6600,13156.55,0
36.6650,13587.98,0
36.6700,13156.55,0
36.6750,13274.17,0
36.6800,13274.17,0
36.6850,11586.85,0
36.6900,13274.17,0
36.6950,13274.17,0
36.7000,13274.17,0
36.7050,13380.03,0
36.7100,13380.03,0
36.7150,12346.09,0
36.7200,13770.49,0
36.7250,15323.99,0
36.7300,15323.99,0
36.7350,12378.58,0
36.7400,14247.73,0
36.7450,1556.37,0
36.7500,1556.37,0
36.7550,1737.69,0
36.7600,1737.69,0
36.7650,11473.83,0
36.7700,2998.57,0
36.7750,12903.33,0
36.7800,2998.57,0
36.7850,3533.39,0
36.7900,3839.00,0
36.7950,3839.00,0
36.8000,3453.20,0
36.8050,3453.20,0
36.8100,3562.56,0
36.8150,4132.67,0
36.8200,2291.21,0
36.8250,4343.17,0
36.8300,4496.31,0
36.8350,14699.55,0
36.8400,3971.30,0
36.8450,3971.30,0
36.8500,3971.30,0
36.8550,3846.27,0
36.8600,4003.10,0
36.8650,4003.10,0
36.8700,4330.78,0
36.8750,4330.78,0
36.8800,4330.78,0
36.8850,4132.65,0
36.8900,4596.19,0
36.8950,4596.19,0
36.9000,4777.78,0
36.9050,4777.78,0
36.9100,5050.82,0
36.9150,5050.82,0
36.9200,5050.82,0
36.9250,4583.78,0
36.9300,4583.78,0
36.9350,16600.19,0
36.9400,4583.78,0
36.9450,4744.83,0
36.9500,4744.83,0
36.9550,5030.59,0
36.9600,4631.89,0
36.9650,4618.89,0
36.9700,4618.89,0
36.9750,4544.10,0
36.9800,4708.87,0
36.9850,4708.87,0
36.9900,5019.69,0
36.9950,4718.41,0
37.0000,5116.14,0
37.0050,5116.14,0
37.0100,5483.98,0
37.0150,5483.98,0
37.0200,5643.07,0
37.0250,5643.07,0
37.0300,5964.94,0
37.0350,5964.94,0
37.0400,4584.22,0
37.0450,5997.43,0
37.0500,5586.95,0
37.0550,5586.95,0
37.0600,5586.95,0
37.0650,5586.95,0
37.0700,5506.57,0
37.0750,5506.57,0
37.0800,5600.63,0
37.0850,5600.63,0
37.0900,4552.62,0
37.0950,5600.63,0
37.1000,4976.82,0
37.1050,5530.74,0
37.1100,6022.52,0
37.1150,6022.52,0
37.1200,6007.28,0
37.1250,6007.28,0
37.1300,5602.05,0
37.1350,4500.31,0
37.1400,5493.54,0
37.1450,5493.54,0
37.1500,5493.54,0
37.1550,5493.54,0
37.1600,6020.83,0
37.1650,6020.83,0
37.1700,5618.41,0
37.1750,5618.41,0
37.1800,5731.92,0
37.1850,5731.92,0
37.1900,6022.11,0
37.1950,6022.11,0
37.2000,5724.98,0
37.2050,6022.11,0
37.2100,5646.41,0
37.2150,5646.41,0
37.2200,5566.72,0
37.2250,5566.72,0
37.2300,5566.72,0
37.2350,5566.72,0
37.2400,5566.72,0
37.2450,5911.26,0
37.2500,5753.33,0
37.2550,5753.33,0
37.2600,5835.97,0
37.2650,6065.90,0
37.2700,6065.90,0
37.2750,5565.24,0
37.2800,6215.62,0
37.2850,6144.51,0
37.2900,5744.97,0
37.2950,5744.97,0
37.3000,5744.97,0
37.3050,5855.00,0
37.3100,5855.00,0
37.3150,6138.75,0
37.3200,6138.75,0
37.3250,6705.46,0
37.3300,5662.51,0
37.3350,5582.48,0
37.3400,5713.58,0
37.3450,5680.01,0
37.3500,5635.97,0
37.3550,6111.42,0
37.3600,6111.42,0
37.3650,5642.29,0
37.3700,6221.89,0
37.3750,6659.18,0
37.3800,6626.80,0
37.3850,6626.80,0
37.3900,6626.80,0
37.3950,6778.13,0
37.4000,6052.81,0
37.4050,7085.96,0
37.4100,7085.96,0
37.4150,6722.35,0
37.4200,6148.44,0
37.4250,6662.27,0
37.4300,6856.91,0
37.4350,6856.91,0
37.4400,6856.91,0
37.4450,5713.92,0
37.4500,6856.91,0
37.4550,6945.00,0
37.4600,7006.59,0
37.4650,7479.14,0
37.4700,7301.86,0
37.4750,6991.89,0
37.4800,6667.33,0
37.4850,6585.48,0
37.4900,6585.48,0
37.4950,6585.48,0
37.5000,6585.48,0
37.5050,7381.39,0
37.5100,7381.39,0
37.5150,7381.39,0
37.5200,7381.39,0
37.5250,6955.47,0
37.5300,6955.47,0
37.5350,7562.58,0
37.5400,7562.58,0
37.5450,7562.58,0
37.5500,7562.58,0
37.5550,6268.44,0
37.5600,6268.44,0
37.5650,-174.48,0
37.5700,24.29,0
37.5750,24.29,0
37.5800,24.29,0
37.5850,601.80,0
37.5900,601.80,0
37.5950,601.80,0
37.6000,601.80,0
37.6050,601.80,0
37.6100,601.80,0
37.6150,-119.97,0
37.6200,-586.53,0
37.6250,-586.53,0
37.6300,-145.22,0
37.6350,-145.22,0
37.6400,-767.78,0
37.6450,7292.26,0
37.6500,-767.78,0
37.6550,-767.78,0
37.6600,-1556.72,0
37.6650,-1556.72,0
37.6700,-1646.17,0
37.6750,-1646.17,0
37.6800,-311.75,0
37.6850,-765.90,0
37.6900,-1057.41,0
37.6950,-1057.41,0
37.7000,-1517.50,0
37.7050,19.62,0
37.7100,-586.57,0
37.7150,7382.12,0
37.7200,611.69,0
37.7250,-139.81,0
37.7300,-912.64,0
37.7350,-979.41,0
37.7400,-1450.58,0
37.7450,-1450.58,0
37.7500,-1450.58,0
37.7550,-1443.22,0
37.7600,-1443.22,0
37.7650,-588.68,0
37.7700,-588.68,0
37.7750,-588.68,0
37.7800,-588.68,0
37.7850,-1428.24,0
37.7900,-1517.51,0
37.7950,-1379.61,0
37.8000,-1379.61,0
37.8050,-575.13,0
37.8100,-575.13,0
37.8150,-671.94,0
37.8200,-886.87,0
37.8250,-886.87,0
37.8300,-886.87,0
37.8350,-1312.23,0
37.8400,-1312.23,0
37.8450,-772.22,0
37.8500,-238.05,0
37.8550,-238.05,0
37.8600,-306.36,0
37.8650,-306.36,0
37.8700,-306.36,0
37.8750,-306.36,0
37.8800,-306.36,0
37.8850,-306.36,0
37.8900,558.51,0
37.8950,558.51,0
37.9000,106.38,0
37.9050,106.38,0
37.9100,-60.97,0
37.9150,-60.97,0
37.9200,-60.97,0
37.9250,-60.97,0
37.9300,95.99,0
37.9350,-50.66,0
37.9400,-192.55,0
37.9450,-192.55,0
37.9500,-157.17,0
37.9550,-157.17,0
37.9600,-157.17,0
37.9650,-157.17,0
37.9700,396.84,0
37.9750,396.84,0
37.9800,871.33,0
37.9850,871.33,0
37.9900,871.33,0
37.9950,871.33,0
38.0000,1149.06,0
38.0050,1149.06,0
38.0100,712.36,0
38.0150,712.36,0
38.0200,419.79,0
38.0250,419.79,0
38.0300,1021.93,0
38.0350,1021.93,0
38.0400,770.92,0
38.0450,770.92,0
38.0500,770.92,0
38.0550,770.92,0
38.0600,1292.36,0
38.0650,1292.36,0
38.0700,2233.13,0
38.0750,2233.13,0
38.0800,2233.13,0
38.0850,2233.13,0
38.0900,2904.16,0
38.0950,2804.46,0
38.1000,2804.46,0
38.1050,2317.89,0
38.1100,756.32,0
38.1150,2268.39,0
38.1200,832.32,0
38.1250,2184.07,0
38.1300,2184.07,0
38.1350,2184.07,0
38.1400,2184.07,0
38.1450,2493.05,0
38.1500,2493.05,0
38.1550,2493.05,0
38.1600,2493.05,0
38.1650,2493.05,0
38.1700,2553.63,0
38.1750,2553.63,0
38.1800,2268.38,0
38.1850,2512.03,0
38.1900,2512.03,0
38.1950,2407.31,0
38.2000,2407.31,0
38.2050,2141.12,0
38.2100,2141.12,0
38.2150,2103.04,0
38.2200,2407.31,0
38.2250,1613.67,0
38.2300,1613.67,0
38.2350,1613.67,0
38.2400,1613.67,0
38.2450,1613.67,0
38.2500,1053.30,0
38.2550,1012.11,0
38.2600,1012.11,0
38.2650,2407.31,0
38.2700,1403.72,0
38.2750,1403.72,0
38.2800,1878.72,0
38.2850,1878.72,0
38.2900,1878.72,0
38.2950,2263.11,0
38.3000,2263.11,0
38.3050,2363.97,0
38.3100,2612.31,0
38.3150,2718.51,0
38.3200,2718.51,0
38.3250,3212.20,0
38.3300,3212.20,0
38.3350,3212.20,0
38.3400,3266.21,0
38.3450,3266.21,0
38.3500,3602.84,0
38.3550,2386.19,0
38.3600,3948.95,0
38.3650,3948.95,0
38.3700,3212.20,0
38.3750,3777.43,0
38.3800,3777.43,0
38.3850,978.54,0
38.3900,-155.87,0
38.3950,-155.87,0
38.4000,1012.62,0
38.4050,-155.87,0
38.4100,-155.87,0
38.4150,444.31,0
38.4200,2011.28,0
38.4250,444.31,0
38.4300,953.71,0
38.4350,953.71,0
38.4400,889.17,0
38.4450,889.17,0
38.4500,889.17,0
38.4550,889.17,0
38.4600,889.17,0
38.4650,1368.69,0
38.4700,1368.69,0
38.4750,1854.27,0
38.4800,3214.26,0
38.4850,1854.27,0
38.4900,1946.93,0
38.4950,1946.93,0
38.5000,2290.89,0
38.5050,2290.89,0
38.5100,3857.07,0
38.5150,2330.08,0
38.5200,2757.46,0
38.5250,2757.46,0
38.5300,2817.77,0
38.5350,3174.97,0
38.5400,3174.97,0
38.5450,1757.63,0
38.5500,436.13,0
38.5550,3206.13,0
38.5600,3645.16,0
38.5650,3645.16,0
38.5700,1995.36,0
38.5750,4148.20,0
38.5800,4148.20,0
38.5850,1757.69,0
38.5900,4190.88,0
38.5950,4190.88,0
38.6000,4625.16,0
38.6050,4625.16,0
38.6100,4772.36,0
38.6150,4772.36,0
38.6200,4772.36,0
38.6250,5194.15,0
38.6300,5194.15,0
38.6350,5683.21,0
38.6400,5683.21,0
38.6450,5750.63,0
38.6500,5750.63,0
38.6550,6116.77,0
38.6600,6116.77,0
38.6650,6116.77,0
38.6700,6116.77,0
38.6750,6620.18,0
38.6800,6620.18,0
38.6850,6560.56,0
38.6900,4625.15,0
38.6950,7057.10,0
38.7000,7057.10,0
38.7050,7117.64,0
38.7100,7117.64,0
38.7150,7117.64,0
38.7200,7117.64,0
38.7250,7545.85,0
38.7300,7545.85,0
38.7350,7698.38,0
38.7400,7698.38,0
38.7450,7698.38,0
38.7500,7698.38,0
38.7550,8052.35,0
38.7600,8052.35,0
38.7650,7514.63,0
38.7700,7711.29,0
38.7750,7711.29,0
38.7800,7711.29,0
38.7850,8035.67,0
38.7900,8035.67,0
38.7950,8597.62,0
38.8000,7693.30,0
38.8050,6078.28,0
38.8100,7531.46,0
38.8150,8532.77,0
38.8200,8532.77,0
38.8250,9010.35,0
38.8300,7053.64,0
38.8350,6110.90,0
38.8400,8949.27,0
38.8450,8467.81,0
38.8500,8467.81,0
38.8550,8668.34,0
38.8600,8980.98,0
38.8650,8980.98,0
38.8700,7694.60,0
38.8750,8956.59,0
38.8800,8956.59,0
38.8850,8532.78,0
38.8900,8567.57,0
38.8950,8660.79,0
38.9000,8660.79,0
38.9050,9006.57,0
38.9100,9006.57,0
38.9150,8974.73,0
38.9200,8604.54,0
38.9250,8604.54,0
38.9300,8520.14,0
38.9350,8520.14,0
38.9400,9081.69,0
38.9450,9081.69,0
38.9500,9079.12,0
38.9550,9079.12,0
38.9600,8680.23,0
38.9650,8680.23,0
38.9700,8680.23,0
38.9750,8520.14,0
38.9800,8570.07,0
38.9850,8778.44,0
38.9900,8506.40,0
38.9950,9160.72,0
39.0000,8975.21,0
39.0050,8975.21,0
39.0100,8975.21,0
39.0150,10192.37,0
39.0200,10192.37,0
39.0250,10323.89,0
39.0300,10323.89,0
39.0350,10323.89,0
39.0400,8568.92,0
39.0450,11043.16,0
39.0500,11043.16,0
39.0550,4145.58,0
39.0600,11537.01,0
39.0650,11586.85,0
39.0700,11586.85,0
39.0750,11188.08,0
39.0800,10956.06,0
39.0850,10956.06,0
39.0900,11327.89,0
39.0950,11327.89,0
39.1000,10956.06,0
39.1050,10875.86,0
39.1100,9559.66,0
39.1150,9559.66,0
39.1200,9525.31,0
39.1250,11800.71,0
39.1300,11586.85,0
39.1350,9525.31,0
39.1400,4224.01,0
39.1450,9592.19,0
39.1500,9486.19,0
39.1550,9486.19,0
39.1600,9650.25,0
39.1650,9650.25,0
39.1700,9349.82,0
39.1750,9669.01,0
39.1800,11800.56,0
39.1850,9741.18,0
39.1900,9741.18,0
39.1950,19.27,0
39.2000,19.27,0
39.2050,10427.47,0
39.2100,19.27,0
39.2150,-227.13,0
39.2200,12136.22,0
39.2250,-71.72,0
39.2300,-86.75,0
39.2350,-86.75,0
39.2400,-86.75,0
39.2450,12189.19,0
39.2500,-94.01,0
39.2550,-94.01,0
39.2600,-79.72,0
39.2650,-207.16,0
39.2700,20.26,0
39.2750,20.26,0
39.2800,-3.79,0
39.2850,-3.79,0
39.2900,-11.95,1
39.2950,-39.51,0
39.3000,-44.68,0
39.3050,-44.68,0
39.3100,-44.68,0
39.3150,-44.68,0
39.3200,-44.68,0
39.3250,-34.08,0
39.3300,-34.08,0
39.3350,-13.32,0
39.3400,-13.32,0
39.3450,31.28,0
39.3500,31.28,0
39.3550,4.56,0
39.3600,4.56,0
39.3650,-84.12,0
39.3700,-3.28,0
39.3750,-3.28,0
39.3800,-7.60,0
39.3850,5358.94,0
39.3900,-7.60,0
39.3950,-7.60,0
39.4000,-4.03,0
39.4050,-756.09,0
39.4100,-7.60,0
39.4150,0.38,0
39.4200,-35.61,0
39.4250,-35.61,0
39.4300,-35.61,0
39.4350,-21.73,0
39.4400,-28.07,0
39.4450,-28.07,0
39.4500,-19.31,0
39.4550,-19.31,0
39.4600,-19.31,0
39.4650,-19.31,0
39.4700,-19.31,0
39.4750,-19.63,0
39.4800,-19.63,0
39.4850,-22.44,0
39.4900,-22.44,0
39.4950,-77.28,0
39.5000,-77.28,0
39.5050,-89.43,0
39.5100,-89.43,0
39.5150,-50.21,0
39.5200,-8.75,0
39.5250,-8.75,0
39.5300,-39.02,0
39.5350,-39.02,0
39.5400,62.19,0
39.5450,62.19,0
39.5500,53.06,0
39.5550,53.06,0
39.5600,53.06,0
39.5650,53.16,0
39.5700,53.16,0
39.5750,57.73,0
39.5800,57.73,0
39.5850,31.02,0
39.5900,31.02,0
39.5950,31.96,0
39.6000,31.96,0
39.6050,-19.59,0
39.6100,17.00,0
39.6150,17.00,0
39.6200,-25.03,0
39.6250,-25.03,0
39.6300,-25.03,0
39.6350,-25.03,0
39.6400,-25.03,0
39.6450,-22.12,0
39.6500,7.32,0
39.6550,7.32,0
39.6600,7.32,0
39.6650,-28.18,0
39.6700,-28.18,0
39.6750,138.82,0
39.6800,138.82,0
39.6850,29.46,0
39.6900,29.46,0
39.6950,29.46,0
39.7000,29.46,0
39.7050,-48.10,0
39.7100,-53.77,0
39.7150,9.46,0
39.7200,20.77,0
39.7250,20.77,0
39.7300,20.77,0
39.7350,48.92,0
39.7400,48.92,0
39.7450,7.32,0
39.7500,69.06,0
39.7550,71.49,0
39.7600,69.06,0
39.7650,69.06,0
39.7700,69.06,0
39.7750,-8.68,0
39.7800,-8.68,0
39.7850,-460.88,0
39.7900,-705.26,0
39.7950,-705.26,0
39.8000,-705.26,0
39.8050,-705.26,0
39.8100,-322.76,0
39.8150,-322.76,0
39.8200,-192.30,0
39.8250,-192.30,0
39.8300,220.19,0
39.8350,8.57,0
39.8400,220.19,0
39.8450,-50.05,0
39.8500,220.19,0
39.8550,220.19,0
39.8600,-362.29,0
39.8650,-362.29,0
39.8700,-397.68,0
39.8750,-397.68,0
39.8800,-322.76,0
39.8850,207.94,0
39.8900,207.94,0
39.8950,-352.54,0
39.9000,-352.54,0
39.9050,-352.54,0
39.9100,-397.68,0
39.9150,383.76,0
39.9200,100.88,0
39.9250,100.88,0
39.9300,-906.07,0
39.9350,-906.07,0
39.9400,-906.07,0
39.9450,-906.07,0
39.9500,-906.07,0
39.9550,-906.07,0
39.9600,-2043.65,0
39.9650,-2043.65,0
39.9700,-2385.57,0
39.9750,-2385.57,0
39.9800,-3251.48,0
39.9850,-3251.48,0
39.9900,-3805.00,0
39.9950,-3805.00,0
40.0000,442.99,0
40.0050,-3805.00,0
40.0100,-401.90,0
40.0150,-4196.74,0
40.0200,-185.28,0
40.0250,-185.28,0
40.0300,-456.87,0
40.0350,-456.87,0
40.0400,-1091.67,0
40.0450,-1091.67,0
40.0500,-1707.81,0
40.0550,-1707.81,0
40.0600,-1707.81,0
40.0650,-1707.81,0
40.0700,-2551.27,0
40.0750,-2971.94,0
40.0800,-2971.94,0
40.0850,-2971.94,0
40.0900,-2971.94,0
40.0950,-2971.94,0
40.1000,-2971.94,0
40.1050,-4196.73,0
40.1100,-3590.93,0
40.1150,-3924.12,0
40.1200,-3924.12,0
40.1250,-4109.75,0
40.1300,-4109.75,0
40.1350,-3829.44,0
40.1400,-3915.08,0
40.1450,-4639.99,0
40.1500,-4639.99,0
40.1550,-4639.99,0
40.1600,-4639.99,0
40.1650,-4734.09,0
40.1700,-4734.09,0
40.1750,-4734.09,0
40.1800,-4734.09,0
40.1850,-4734.09,0
40.1900,-3740.15,0
40.1950,-3740.15,0
40.2000,-4468.29,0
40.2050,-4468.29,0
40.2100,-4468.29,0
40.2150,-4468.29,0
40.2200,-4468.29,0
40.2250,-4468.29,0
40.2300,-4832.45,0
40.2350,-4832.45,0
40.2400,-4805.30,0
40.2450,-4795.93,0
40.2500,-2997.95,0
40.2550,-4795.93,0
40.2600,-4795.93,0
40.2650,-3841.25,0
40.2700,-4845.77,0
40.2750,-4947.81,0
40.2800,-4947.81,0
40.2850,-4889.53,0
40.2900,-4889.53,0
40.2950,-4889.53,0
40.3000,-4889.53,0
40.3050,-4947.81,0
40.3100,-4989.48,0
40.3150,-5005.91,0
40.3200,-5005.91,0
40.3250,-4973.87,0
40.3300,-4973.87,0
40.3350,-5046.45,0
40.3400,-5046.45,0
40.3450,-4995.17,0
40.3500,-4995.17,0
40.3550,-5039.98,0
40.3600,-5039.98,0
40.3650,-5086.55,0
40.3700,-5086.55,0
40.3750,-5086.55,0
40.3800,-5086.55,0
40.3850,-5168.75,0
40.3900,-5168.75,0
40.3950,-5112.41,0
40.4000,-5026.26,0
40.4050,-5000.87,0
40.4100,-5033.98,0
40.4150,-5041.72,0
40.4200,-4868.47,0
40.4250,-4868.47,0
40.4300,-4678.98,0
40.4350,-4678.98,0
40.4400,-4777.51,0
40.4450,-4931.71,0
40.4500,-4931.71,0
40.4550,-4946.19,0
40.4600,-4946.19,0
40.4650,-4890.91,0
40.4700,-4890.91,0
40.4750,-2292.67,0
40.4800,-4890.91,0
40.4850,-5023.79,0
40.4900,-4864.56,0
40.4950,-4825.53,0
40.5000,-4825.53,0
40.5050,-4834.96,0
40.5100,-4834.96,0
40.5150,-4834.96,0
40.5200,-4873.07,0
40.5250,-4858.49,0
40.5300,-4858.49,0
40.5350,-4906.31,0
40.5400,-4906.31,0
40.5450,-4906.31,0
40.5500,-5933.88,0
40.5550,-4868.90,0
40.5600,-4868.90,0
40.5650,-4868.90,0
40.5700,-4868.90,0
40.5750,-4868.90,0
40.5800,-4806.74,0
40.5850,-4806.74,0
40.5900,-4826.71,0
40.5950,-4936.82,0
40.6000,-4826.71,0
40.6050,-4864.09,0
40.6100,-4864.09,0
40.6150,-4847.03,0
40.6200,-4847.03,0
40.6250,-4875.77,0
40.6300,-4875.77,0
40.6350,-4932.92,0
40.6400,-4932.92,0
40.6450,-4932.92,0
40.6500,-4932.92,0
40.6550,-4908.33,0
40.6600,-4908.33,0
40.6650,-4966.72,0
40.6700,-4966.72,0
40.6750,-4864.10,0
40.6800,-4927.48,0
40.6850,-4966.86,0
40.6900,-4966.86,0
40.6950,-4966.86,0
40.7000,-4966.86,0
40.7050,-4977.83,0
40.7100,-4977.83,0
40.7150,-4972.89,0
40.7200,-4972.89,0
40.7250,-5036.14,0
40.7300,-5036.14,0
40.7350,-4967.33,0
40.7400,-4967.33,0
40.7450,-4967.33,0
40.7500,-4967.33,0
40.7550,-4967.33,0
40.7600,-4967.33,0
40.7650,-5235.14,0
40.7700,-4878.22,0
40.7750,-4878.22,0
40.7800,-4776.37,0
40.7850,-4776.37,0
40.7900,-4955.09,0
40.7950,-4955.09,0
40.8000,-4832.50,0
40.8050,-4832.50,0
40.8100,-4705.26,0
40.8150,-4705.26,0
40.8200,-4705.26,0
40.8250,-4705.26,0
40.8300,-4172.50,0
40.8350,-4172.50,0
40.8400,96.74,0
40.8450,193.88,0
40.8500,193.88,0
40.8550,193.88,0
40.8600,193.88,0
40.8650,-38.52,0
40.8700,-38.52,0
40.8750,-137.66,0
40.8800,-137.66,0
40.8850,-271.65,0
40.8900,-271.65,0
40.8950,-275.24,0
40.9000,-275.24,0
40.9050,-275.24,0
40.9100,-427.79,0
40.9150,-427.79,0
40.9200,-427.79,0
40.9250,-515.27,0
40.9300,-776.90,0
40.9350,-776.90,0
40.9400,-366.51,0
40.9450,-516.40,0
40.9500,-516.40,0
40.9550,-516.40,0
40.9600,-760.33,0
40.9650,-760.33,0
40.9700,-1513.19,0
40.9750,-1513.19,0
40.9800,-1033.01,0
40.9850,-1033.01,0
40.9900,-1377.69,0
40.9950,-1377.69,0
41.0000,-1839.11,0
41.0050,-1839.11,0
41.0100,-1486.94,0
41.0150,-1486.94,0
41.0200,-1297.91,0
41.0250,-1297.91,0
41.0300,-2017.77,0
41.0350,-2017.77,0
41.0400,-775.94,0
41.0450,-2482.82,0
41.0500,-2244.40,0
41.0550,-2244.40,0
41.0600,-2075.04,0
41.0650,-2075.04,0
41.0700,-2075.04,0
41.0750,-2075.04,0
41.0800,-1775.73,0
41.0850,-1775.73,0
41.0900,-1098.43,0
41.0950,-1098.43,0
41.1000,-1420.85,0
41.1050,-1420.85,0
41.1100,-955.93,0
41.1150,-955.93,0
41.1200,-1518.28,0
41.1250,-1184.60,0
41.1300,-1707.86,0
41.1350,-2607.84,0
41.1400,-1717.11,0
41.1450,-1717.11,0
41.1500,-1383.31,0
41.1550,-1383.31,0
41.1600,-1223.88,0
41.1650,-1223.88,0
41.1700,-1647.98,0
41.1750,-1647.98,0
41.1800,-1777.95,0
41.1850,-1777.95,0
41.1900,-1777.95,0
41.1950,-1777.95,0
41.2000,-1717.11,0
41.2050,-1352.05,0
41.2100,-195.76,0
41.2150,-195.76,0
41.2200,-195.76,0
41.2250,-456.64,0
41.2300,-456.64,0
41.2350,-640.57,0
41.2400,-991.57,0
41.2450,-626.87,0
41.2500,-626.87,0
41.2550,-226.09,0
41.2600,-1172.92,0
41.2650,335.52,0
41.2700,335.52,0
41.2750,484.01,0
41.2800,-1647.93,0
41.2850,356.61,0
41.2900,356.61,0
41.2950,356.61,0
41.3000,356.61,0
41.3050,42.94,0
41.3100,-1544.06,0
41.3150,105.95,0
41.3200,105.95,0
41.3250,188.55,0
41.3300,188.55,0
41.3350,84.05,0
41.3400,200.06,0
41.3450,200.06,0
41.3500,200.06,0
41.3550,220.57,0
41.3600,220.57,0
41.3650,248.74,0
41.3700,248.74,0
41.3750,196.31,0
41.3800,248.74,0
41.3850,203.81,0
41.3900,203.81,0
41.3950,366.06,0
41.4000,394.29,0
41.4050,394.29,0
41.4100,359.16,0
41.4150,359.16,0
41.4200,218.03,0
41.4250,218.03,0
41.4300,218.03,0
41.4350,151.41,0
41.4400,96.22,0
41.4450,802.23,0
41.4500,802.23,0
41.4550,253.29,0
41.4600,253.29,0
41.4650,19.67,0
41.4700,19.67,0
41.4750,-193.39,0
41.4800,143.19,0
41.4850,610.46,0
41.4900,610.46,0
41.4950,610.46,0
41.5000,610.46,0
41.5050,802.23,0
41.5100,829.61,0
41.5150,379.87,0
41.5200,379.87,0
41.5250,663.71,0
41.5300,663.71,0
41.5350,1064.54,0
41.5400,1064.54,0
41.5450,1064.54,0
41.5500,1064.54,0
41.5550,1064.54,0
41.5600,225.66,0
41.5650,660.86,0
41.5700,923.47,0
41.5750,923.47,0
41.5800,1181.79,0
41.5850,1181.79,0
41.5900,1353.59,0
41.5950,1353.59,0
41.6000,829.61,0
41.6050,1353.59,0
41.6100,1032.45,0
41.6150,1175.38,0
41.6200,1071.71,0
41.6250,1071.71,0
41.6300,493.16,0
41.6350,493.16,0
41.6400,363.49,0
41.6450,363.49,0
41.6500,363.49,0
41.6550,363.49,0
41.6600,605.07,0
41.6650,605.07,0
41.6700,747.29,0
41.6750,682.54,0
41.6800,682.54,0
41.6850,682.54,0
41.6900,682.54,0
41.6950,884.90,0
41.7000,884.90,0
41.7050,831.50,0
41.7100,831.50,0
41.7150,936.18,0
41.7200,936.18,0
41.7250,936.18,0
41.7300,936.18,0
41.7350,936.18,0
41.7400,493.17,0
41.7450,900.84,0
41.7500,962.38,0
41.7550,962.38,0
41.7600,962.38,0
41.7650,339.04,0
41.7700,1039.80,0
41.7750,1039.80,0
41.7800,1074.54,0
41.7850,1074.54,0
41.7900,1034.39,0
41.7950,1097.73,0
41.8000,1097.73,0
41.8050,1097.73,0
41.8100,1097.73,0
41.8150,1097.73,0
41.8200,1120.33,0
41.8250,1120.33,0
41.8300,1234.92,0
41.8350,1518.95,0
41.8400,1518.95,0
41.8450,1518.95,0
41.8500,1209.05,0
41.8550,935.59,0
41.8600,935.59,0
41.8650,1000.76,0
41.8700,1300.75,0
41.8750,1207.72,0
41.8800,1342.21,0
41.8850,765.46,0
41.8900,765.46,0
41.8950,616.36,0
41.9000,616.36,0
41.9050,616.36,0
41.9100,916.20,0
41.9150,989.53,0
41.9200,1467.48,0
41.9250,989.53,0
41.9300,989.53,0
41.9350,989.53,0
41.9400,682.72,0
41.9450,682.72,0
41.9500,1000.75,0
41.9550,460.99,0
41.9600,748.86,0
41.9650,916.20,0
41.9700,617.06,0
41.9750,617.06,0
41.9800,617.06,0
41.9850,617.06,0
41.9900,893.86,0
41.9950,893.86,0
42.0000,905.15,0
42.0050,905.15,0
42.0100,731.60,0
42.0150,731.60,0
42.0200,941.77,0
42.0250,941.77,0
42.0300,414.49,0
42.0350,322.09,0
42.0400,789.79,0
42.0450,324.76,0
42.0500,324.76,0
42.0550,1023.19,0
42.0600,1023.19,0
42.0650,1290.75,0
42.0700,1290.75,0
42.0750,1276.30,0
42.0800,1276.30,0
42.0850,1276.30,0
42.0900,1189.37,0
42.0950,1189.37,0
42.1000,197.75,0
42.1050,197.75,0
42.1100,-100.23,0
42.1150,432.84,0
42.1200,-232.02,0
42.1250,-232.02,0
42.1300,-478.37,0
42.1350,-252.60,0
42.1400,-252.60,0
42.1450,-380.44,0
42.1500,-380.44,0
42.1550,-380.44,0
42.1600,-307.76,0
42.1650,-307.76,0
42.1700,-166.82,0
42.1750,-166.82,0
42.1800,-166.82,0
42.1850,-166.82,0
42.1900,-90.16,0
42.1950,-90.16,0
42.2000,-156.09,0
42.2050,-156.09,0
42.2100,-51.72,0
42.2150,-51.72,0
42.2200,-64.87,0
42.2250,-64.87,0
42.2300,36.70,0
42.2350,716.97,0
42.2400,33.54,0
42.2450,33.54,0
42.2500,33.54,0
42.2550,21.67,0
42.2600,1332.61,0
42.2650,21.67,0
42.2700,21.67,0
42.2750,-22.04,0
42.2800,1369.74,0
42.2850,115.88,0
42.2900,115.88,0
42.2950,115.88,0
42.3000,99.98,0
42.3050,502.02,0
42.3100,502.02,0
42.3150,502.02,0
42.3200,502.02,0
42.3250,-26.80,0
42.3300,-26.80,0
42.3350,-155.27,0
42.3400,-155.27,0
42.3450,-139.23,0
42.3500,-139.23,0
42.3550,86.31,0
42.3600,86.31,0
42.3650,86.31,0
42.3700,86.31,0
42.3750,160.78,0
42.3800,160.78,0
42.3850,-17.12,0
42.3900,-17.12,0
42.3950,16.64,0
42.4000,16.64,0
42.4050,16.64,0
42.4100,36.44,0
42.4150,36.44,0
42.4200,36.44,0
42.4250,36.44,0
42.4300,29.72,0
42.4350,-76.67,0
42.4400,20.26,0
42.4450,277.02,0
42.4500,27.48,0
42.4550,277.02,0
42.4600,186.80,0
42.4650,186.80,0
42.4700,66.03,0
42.4750,66.03,0
42.4800,277.02,0
42.4850,-298.06,0
42.4900,247.78,0
42.4950,51.87,0
42.5000,-565.86,0
42.5050,-565.86,0
42.5100,-627.10,0
42.5150,-627.10,0
42.5200,-490.20,0
42.5250,177.74,0
42.5300,-490.20,0
42.5350,-561.96,0
42.5400,-341.49,0
42.5450,-341.49,0
42.5500,-220.76,0
42.5550,-220.76,0
42.5600,-620.67,0
42.5650,-149.22,0
42.5700,-140.39,0
42.5750,-140.39,0
42.5800,79.89,0
42.5850,104.74,0
42.5900,104.74,0
42.5950,67.07,0
42.6000,67.07,0
42.6050,18.34,0
42.6100,18.34,0
42.6150,-70.64,0
42.6200,-70.64,0
42.6250,-70.64,0
42.6300,-70.64,0
42.6350,-70.64,0
42.6400,-140.39,0
42.6450,-70.64,0
42.6500,-477.69,0
42.6550,-477.69,0
42.6600,-574.81,0
42.6650,-513.07,0
42.6700,-513.07,0
42.6750,26.40,0
42.6800,-278.78,0
42.6850,-199.43,0
42.6900,-110.12,0
42.6950,-110.12,0
42.7000,-110.12,0
42.7050,-110.12,0
42.7100,-6.87,0
42.7150,-6.87,0
42.7200,-6.87,0
42.7250,-6.87,0
42.7300,-146.60,0
42.7350,-146.60,0
42.7400,-561.41,0
42.7450,-561.41,0
42.7500,-561.41,0
42.7550,-561.41,0
42.7600,-810.21,0
42.7650,-810.21,0
42.7700,-460.25,0
42.7750,-460.25,0
42.7800,-806.52,0
42.7850,-806.52,0
42.7900,-806.52,0
42.7950,-890.45,0
42.8000,-890.45,0
42.8050,-890.45,0
42.8100,-921.71,0
42.8150,-921.71,0
42.8200,-981.97,0
42.8250,-981.97,0
42.8300,-146.62,0
42.8350,-812.26,0
42.8400,-646.11,0
42.8450,-646.11,0
42.8500,-468.43,0
42.8550,-485.65,0
42.8600,-914.82,0
42.8650,-914.82,0
42.8700,-914.82,0
42.8750,-1045.68,0
42.8800,-701.69,0
42.8850,-701.69,0
42.8900,-624.67,0
42.8950,-624.67,0
42.9000,-423.73,0
42.9050,-423.73,0
42.9100,-181.29,0
42.9150,-650.99,0
42.9200,-650.99,0
42.9250,-1119.83,0
42.9300,-912.88,0
42.9350,-1264.24,0
42.9400,-1264.24,0
42.9450,-1264.24,0
42.9500,-1264.24,0
42.9550,-1600.84,0
42.9600,-812.55,0
42.9650,-1661.04,0
42.9700,-1661.04,0
42.9750,-1889.36,0
42.9800,-517.41,0
42.9850,-2210.31,0
42.9900,-2210.31,0
42.9950,-2210.31,0
43.0000,-2210.31,0
43.0050,-2608.65,0
43.0100,-2510.34,0
43.0150,-2510.34,0
43.0200,-1047.85,0
43.0250,-2418.19,0
43.0300,-2453.71,0
43.0350,-2453.71,0
43.0400,-2453.71,0
43.0450,-2453.71,0
43.0500,-2484.47,0
43.0550,-2484.47,0
43.0600,-2977.41,0
43.0650,-2977.41,0
43.0700,-2977.41,0
43.0750,-2885.67,0
43.0800,-1649.24,0
43.0850,-2336.42,0
43.0900,-2336.42,0
43.0950,-2336.42,0
43.1000,-2336.42,0
43.1050,-1725.64,0
43.1100,-1725.64,0
43.1150,-1102.07,0
43.1200,-1102.07,0
43.1250,-500.03,0
43.1300,-500.03,0
43.1350,-109.87,0
43.1400,-109.87,0
43.1450,-50.12,0
43.1500,-50.12,0
43.1550,-144.72,0
43.1600,-144.72,0
43.1650,62.81,0
43.1700,62.81,0
43.1750,62.81,0
43.1800,62.81,0
43.1850,112.20,0
43.1900,112.20,0
43.1950,589.99,0
43.2000,-144.72,0
43.2050,350.37,0
43.2100,350.37,0
43.2150,350.37,0
43.2200,-383.51,0
43.2250,-383.51,0
43.2300,-363.87,0
43.2350,-363.87,0
43.2400,-8.69,0
43.2450,112.20,0
43.2500,-8.69,0
43.2550,337.15,0
43.2600,337.15,0
43.2650,22.45,0
43.2700,22.45,0
43.2750,-349.01,0
43.2800,-349.01,0
43.2850,-1556.05,0
43.2900,992.81,0
43.2950,1299.63,0
43.3000,1299.63,0
43.3050,998.94,0
43.3100,998.94,0
43.3150,-363.88,0
43.3200,1601.65,0
43.3250,1601.65,0
43.3300,1601.65,0
43.3350,1942.49,0
43.3400,1942.49,0
43.3450,1671.73,0
43.3500,1671.73,0
43.3550,1178.83,0
43.3600,1178.83,0
43.3650,1178.83,0
43.3700,1178.83,0
43.3750,1178.83,0
43.3800,544.01,0
43.3850,544.01,0
43.3900,-56.37,0
43.3950,710.50,0
43.4000,710.50,0
43.4050,17.00,0
43.4100,17.00,0
43.4150,-67.50,0
43.4200,-67.50,0
43.4250,188.15,0
43.4300,552.63,0
43.4350,78.71,0
43.4400,212.15,0
43.4450,212.15,0
43.4500,-323.55,0
43.4550,228.39,0
43.4600,388.17,0
43.4650,388.17,0
43.4700,388.17,0
43.4750,1262.05,0
43.4800,177.33,0
43.4850,177.33,0
43.4900,87.94,0
43.4950,87.94,0
43.5000,-99.09,0
43.5050,-99.09,0
43.5100,186.39,0
43.5150,186.39,0
43.5200,177.33,0
43.5250,186.39,0
43.5300,1681.36,0
43.5350,1681.36,0
43.5400,1681.36,0
43.5450,1907.33,0
43.5500,1907.33,0
43.5550,2085.75,0
43.5600,2085.75,0
43.5650,2085.75,0
43.5700,2085.75,0
43.5750,-75.49,0
43.5800,1669.67,0
43.5850,1444.24,0
43.5900,1444.24,0
43.5950,1541.59,0
43.6000,1541.59,0
43.6050,107.74,0
43.6100,1645.10,0
43.6150,1645.10,0
43.6200,1645.10,0
43.6250,1645.10,0
43.6300,1645.10,0
43.6350,1515.33,0
43.6400,1515.33,0
43.6450,1402.32,0
43.6500,1402.32,0
43.6550,1601.98,0
43.6600,1601.98,0
43.6650,1652.51,0
43.6700,1652.51,0
43.6750,1652.51,0
43.6800,1928.25,0
43.6850,1928.25,0
43.6900,2085.82,0
43.6950,1648.27,0
43.7000,2115.94,0
43.7050,2115.94,0
43.7100,2115.94,0
43.7150,2115.94,0
43.7200,1645.10,0
43.7250,1552.02,0
43.7300,1840.19,0
43.7350,1840.19,0
43.7400,1920.75,0
43.7450,1920.75,0
43.7500,1663.95,0
43.7550,1663.95,0
43.7600,1297.48,0
43.7650,1297.48,0
43.7700,750.83,0
43.7750,750.83,0
43.7800,606.95,0
43.7850,1552.01,0
43.7900,942.56,0
43.7950,942.56,0
43.8000,1412.37,0
43.8050,1749.80,0
43.8100,1277.33,0
43.8150,1391.40,0
43.8200,1391.40,0
43.8250,1126.03,0
43.8300,1548.06,0
43.8350,1126.03,0
43.8400,1262.49,0
43.8450,1262.49,0
43.8500,1298.50,0
43.8550,1298.50,0
43.8600,1295.16,0
43.8650,1295.16,0
43.8700,1295.16,0
43.8750,1295.16,0
43.8800,1277.34,0
43.8850,1277.34,0
43.8900,1519.57,0
43.8950,1519.57,0
43.9000,893.89,0
43.9050,1234.63,0
43.9100,1234.63,0
43.9150,771.11,0
43.9200,771.11,0
43.9250,1295.16,0
43.9300,926.34,0
43.9350,1060.13,0
43.9400,1060.13,0
43.9450,729.97,0
43.9500,729.97,0
43.9550,1262.30,0
43.9600,729.97,0
43.9650,776.86,0
43.9700,776.86,0
43.9750,776.86,0
43.9800,1078.72,0
43.9850,1454.34,0
43.9900,757.07,0
43.9950,757.07,0
44.0000,757.07,0
44.0050,757.07,0
44.0100,757.07,0
44.0150,757.07,0
44.0200,1076.24,0
44.0250,1076.24,0
44.0300,1071.89,0
44.0350,1071.89,0
44.0400,943.01,0
44.0450,943.01,0
44.0500,1247.73,0
44.0550,1247.73,0
44.0600,1247.73,0
44.0650,1247.73,0
44.0700,952.76,0
44.0750,952.76,0
44.0800,952.76,0
44.0850,1300.50,0
44.0900,940.22,0
44.0950,686.12,0
44.1000,-644.57,0
44.1050,993.03,0
44.1100,-644.57,0
44.1150,-644.57,0
44.1200,1223.62,0
44.1250,-644.57,0
44.1300,-25.73,0
44.1350,-25.73,0
44.1400,-53.31,0
44.1450,-53.31,0
44.1500,-124.47,0
44.1550,-124.47,0
44.1600,-178.45,0
44.1650,-178.45,0
44.1700,-178.45,0
44.1750,-113.16,0
44.1800,-113.16,0
44.1850,180.33,0
44.1900,-25.73,0
44.1950,376.82,0
44.2000,376.82,0
44.2050,315.59,0
44.2100,315.59,0
44.2150,34.86,0
44.2200,34.86,0
44.2250,-128.89,0
44.2300,-128.89,0
44.2350,-688.53,0
44.2400,-688.53,0
44.2450,-1054.41,0
44.2500,-1054.41,0
44.2550,-1061.35,0
44.2600,-1061.35,0
44.2650,-734.69,0
44.2700,-1117.73,0
44.2750,-1117.73,0
44.2800,-746.04,0
44.2850,-746.04,0
44.2900,-808.68,1
44.2950,-808.68,0
44.3000,-861.55,0
44.3050,-861.55,0
44.3100,-861.55,0
44.3150,-270.15,0
44.3200,-199.65,0
44.3250,-870.71,0
44.3300,-870.71,0
44.3350,-677.95,0
44.3400,-1033.39,0
44.3450,-615.38,0
44.3500,-1033.39,0
44.3550,-1277.12,0
44.3600,-1277.12,0
44.3650,-1277.12,0
44.3700,-1277.12,0
44.3750,-1308.40,0
44.3800,-1308.40,0
44.3850,-1257.76,0
44.3900,-1257.76,0
44.3950,-1973.48,0
44.4000,-100.55,0
44.4050,-2297.37,0
44.4100,-2297.37,0
44.4150,-2297.37,0
44.4200,-2297.37,0
44.4250,-2214.73,0
44.4300,-2214.73,0
44.4350,-2458.13,0
44.4400,-2458.13,0
44.4450,-3037.91,0
44.4500,-3037.91,0
44.4550,-3476.88,0
44.4600,-3476.88,0
44.4650,-4369.28,0
44.4700,-4369.28,0
44.4750,-4552.56,0
44.4800,-4552.56,0
44.4850,-4544.34,0
44.4900,-4544.34,0
44.4950,-4678.58,0
44.5000,-4678.58,0
44.5050,-4762.10,0
44.5100,-4805.02,0
44.5150,-4805.02,0
44.5200,-4814.98,0
44.5250,-4814.98,0
44.5300,-1138.61,0
44.5350,-4900.02,0
44.5400,-2586.71,0
44.5450,-4461.07,0
44.5500,-4337.11,0
44.5550,-4312.95,0
44.5600,-4312.95,0
44.5650,-4234.85,0
44.5700,-4234.85,0
44.5750,-4805.02,0
44.5800,-3624.47,0
44.5850,-3624.47,0
44.5900,-3624.47,0
44.5950,-4591.40,0
44.6000,-4200.22,0
44.6050,-4200.22,0
44.6100,-3778.11,0
44.6150,-4200.22,0
44.6200,-3778.11,0
44.6250,-3778.11,0
44.6300,-2236.96,0
44.6350,-4797.45,0
44.6400,-2147.40,0
44.6450,-2236.96,0
44.6500,-1971.81,0
44.6550,-1971.81,0
44.6600,-1944.96,0
44.6650,-1944.96,0
44.6700,-1465.19,0
44.6750,-2112.33,0
44.6800,-4795.93,0
44.6850,-1465.19,0
44.6900,-1465.19,0
44.6950,-998.53,0
44.7000,-998.53,0
44.7050,-3625.82,0
44.7100,-424.27,0
44.7150,-424.27,0
44.7200,-872.02,0
44.7250,-4597.89,0
44.7300,-265.25,0
44.7350,-160.58,0
44.7400,-160.58,0
44.7450,-208.20,0
44.7500,-208.20,0
44.7550,-208.20,0
44.7600,-3770.25,0
44.7650,665.32,0
44.7700,665.32,0
44.7750,898.36,0
44.7800,898.36,0
44.7850,960.88,0
44.7900,960.88,0
44.7950,-1101.99,0
44.8000,1137.72,0
44.8050,-2092.60,0
44.8100,1602.66,0
44.8150,1602.66,0
44.8200,1602.66,0
44.8250,1798.39,0
44.8300,-357.07,0
44.8350,2140.06,0
44.8400,2140.06,0
44.8450,1893.57,0
44.8500,1893.57,0
44.8550,1893.57,0
44.8600,1893.57,0
44.8650,1722.08,0
44.8700,-1060.63,0
44.8750,1802.62,0
44.8800,1802.62,0
44.8850,-251.52,0
44.8900,2523.35,0
44.8950,2671.62,0
44.9000,2671.62,0
44.9050,2671.62,0
44.9100,2671.62,0
44.9150,2652.50,0
44.9200,2652.50,0
44.9250,-1484.59,0
44.9300,-1484.59,0
44.9350,-1505.49,0
44.9400,-1505.49,0
44.9450,-1624.41,0
44.9500,-1543.51,0
44.9550,-1543.51,0
44.9600,-1505.49,0
44.9650,-1543.51,0
44.9700,-1543.51,0
44.9750,2671.30,0
44.9800,-1658.16,0
44.9850,-1605.03,0
44.9900,-1605.03,0
44.9950,1722.00,0
45.0000,-1720.94,0
45.0050,-2042.48,0
45.0100,2325.21,0
45.0150,-2042.48,0
45.0200,-2042.48,0
45.0250,-2042.48,0
45.0300,-2042.48,0
45.0350,-2123.80,0
45.0400,-1989.69,0
45.0450,-1989.69,0
45.0500,-1989.69,0
45.0550,-1925.71,0
45.0600,-1925.71,0
45.0650,-1925.71,0
45.0700,-1925.71,0
45.0750,-1925.71,0
45.0800,-1925.71,0
45.0850,-1607.24,0
45.0900,-1854.23,0
45.0950,-1916.48,0
45.1000,-1914.58,0
45.1050,-1914.58,0
45.1100,-1938.28,0
45.1150,-1782.34,0
45.1200,-1946.52,0
45.1250,-1951.74,0
45.1300,-1951.74,0
45.1350,-1655.60,0
45.1400,-1931.57,0
45.1450,-1931.57,0
45.1500,-1931.57,0
45.1550,-1931.57,0
45.1600,-1978.57,0
45.1650,-1978.57,0
45.1700,-1978.57,0
45.1750,-2157.64,0
45.1800,-2157.64,0
45.1850,-2157.64,0
45.1900,-2173.77,0
45.1950,-2173.77,0
45.2000,-2218.82,0
45.2050,-2218.82,0
45.2100,-2080.15,0
45.2150,-2080.15,0
45.2200,-2080.15,0
45.2250,-1998.01,0
45.2300,-1998.01,0
45.2350,-1809.80,0
45.2400,-2020.26,0
45.2450,-2020.26,0
45.2500,-2020.26,0
45.2550,-1858.87,0
45.2600,-1858.87,0
45.2650,-1858.87,0
45.2700,-1858.87,0
45.2750,-1858.87,0
45.2800,-1858.87,0
45.2850,-1887.84,0
45.2900,-1932.96,0
45.2950,-2049.89,0
45.3000,-1831.83,0
45.3050,-1273.29,0
45.3100,-1711.56,0
45.3150,-615.90,0
45.3200,-615.90,0
45.3250,-332.57,0
45.3300,-332.57,0
45.3350,-648.66,0
45.3400,-648.66,0
45.3450,-699.10,0
45.3500,-699.10,0
45.3550,-603.93,0
45.3600,-603.93,0
45.3650,-541.91,0
45.3700,-541.91,0
45.3750,-107.95,0
45.3800,-107.95,0
45.3850,-12.18,0
45.3900,-12.18,0
45.3950,27.96,0
45.4000,-771.06,0
45.4050,27.96,0
45.4100,27.96,0
45.4150,65.63,0
45.4200,65.63,0
45.4250,452.09,0
45.4300,452.09,0
45.4350,-178.90,0
45.4400,-1208.28,0
45.4450,-178.90,0
45.4500,-530.33,0
45.4550,-530.33,0
45.4600,-384.44,0
45.4650,361.15,0
45.4700,459.22,0
45.4750,459.22,0
45.4800,-830.34,0
45.4850,459.22,0
45.4900,962.23,0
45.4950,962.23,0
45.5000,852.39,0
45.5050,852.39,0
45.5100,1056.20,0
45.5150,1056.20,0
45.5200,-356.05,0
45.5250,1131.65,0
45.5300,1131.65,0
45.5350,1114.41,0
45.5400,1114.41,0
45.5450,1114.41,0
45.5500,1114.41,0
45.5550,887.19,0
45.5600,1097.58,0
45.5650,1110.02,0
45.5700,1110.02,0
45.5750,1355.57,0
45.5800,1355.57,0
45.5850,1555.72,0
45.5900,1555.72,0
45.5950,1420.58,0
45.6000,1420.58,0
45.6050,1117.54,0
45.6100,1117.54,0
45.6150,1117.54,0
45.6200,1117.54,0
45.6250,1091.24,0
45.6300,1091.24,0
45.6350,-398.42,0
45.6400,1053.07,0
45.6450,1018.04,0
45.6500,1018.04,0
45.6550,1022.00,0
45.6600,1022.00,0
45.6650,1052.56,0
45.6700,1052.56,0
45.6750,1004.27,0
45.6800,1004.27,0
45.6850,1049.86,0
45.6900,1049.86,0
45.6950,1154.55,0
45.7000,1154.55,0
45.7050,1020.64,0
45.7100,1085.80,0
45.7150,1085.80,0
45.7200,1085.80,0
45.7250,1085.80,0
45.7300,1037.34,0
45.7350,1037.34,0
45.7400,12.60,0
45.7450,12.60,0
45.7500,8.11,0
45.7550,8.11,0
45.7600,11.07,0
45.7650,11.07,0
45.7700,5.30,0
45.7750,5.30,0
45.7800,-322.30,0
45.7850,-322.30,0
45.7900,-131.43,0
45.7950,-131.43,0
45.8000,1037.34,0
45.8050,49.68,0
45.8100,-2.51,0
45.8150,-2.51,0
45.8200,-2.51,0
45.8250,-2.51,0
45.8300,-6.09,0
45.8350,-6.09,0
45.8400,-64.44,0
45.8450,-64.44,0
45.8500,-283.98,0
45.8550,-283.98,0
45.8600,-510.28,0
45.8650,-510.28,0
45.8700,-510.28,0
45.8750,-510.28,0
45.8800,-109.20,0
45.8850,-109.20,0
45.8900,187.04,0
45.8950,187.04,0
45.9000,-84.82,0
45.9050,-84.82,0
45.9100,-84.82,0
45.9150,-84.82,0
45.9200,-84.82,0
45.9250,10.65,0
45.9300,10.65,0
45.9350,-46.72,0
45.9400,5.57,0
45.9450,-149.55,0
45.9500,-149.55,0
45.9550,-149.55,0
45.9600,-714.55,0
45.9650,-714.55,0
45.9700,-714.55,0
45.9750,-495.78,0
45.9800,-495.78,0
45.9850,-485.54,0
45.9900,-485.54,0
45.9950,31.31,0
46.0000,31.31,0
46.0050,8.91,0
46.0100,8.91,0
46.0150,8.91,0
46.0200,8.91,0
46.0250,-490.22,0
46.0300,-809.46,0
46.0350,-302.37,0
46.0400,-302.37,0
46.0450,-302.37,0
46.0500,-709.83,0
46.0550,-302.37,0
46.0600,-302.37,0
46.0650,-302.37,0
46.0700,-302.37,0
46.0750,204.67,0
46.0800,204.67,0
46.0850,406.76,0
46.0900,8.91,0
46.0950,406.76,0
46.1000,104.22,0
46.1050,104.22,0
46.1100,-165.57,0
46.1150,-715.05,0
46.1200,-715.05,0
46.1250,-715.05,0
46.1300,-727.63,0
46.1350,-727.63,0
46.1400,-727.63,0
46.1450,-727.63,0
46.1500,543.37,0
46.1550,-1057.26,0
46.1600,-149.03,0
46.1650,-22.45,0
46.1700,-364.19,0
46.1750,173.24,0
46.1800,-313.56,0
46.1850,-119.89,0
46.1900,-299.90,0
46.1950,7.94,0
46.2000,7.94,0
46.2050,115.95,0
46.2100,115.95,0
46.2150,-782.98,0
46.2200,-782.98,0
46.2250,-782.98,0
46.2300,-22.44,0
46.2350,-690.47,0
46.2400,-690.47,0
46.2450,-690.47,0
46.2500,-1025.76,0
46.2550,-1025.76,0
