timestamp,ch1 (µV),event
3.6850,-6.20,0
3.6900,-12.44,0
3.6950,-12.44,0
3.7000,-12.44,0
3.7050,-12.44,0
3.7100,-2.66,0
3.7150,-2.66,0
3.7200,-5.78,0
3.7250,19.80,0
3.7300,19.80,0
3.7350,19.80,0
3.7400,-2.50,0
3.7450,3.20,0
3.7500,3.20,0
3.7550,15.72,0
3.7600,15.72,0
3.7650,19.54,0
3.7700,19.54,0
3.7750,-3.50,0
3.7800,-3.50,0
3.7850,2.70,0
3.7900,2.70,0
3.7950,-11.80,0
3.8000,-11.80,0
3.8050,-11.80,0
3.8100,-11.80,0
3.8150,-0.50,0
3.8200,-0.50,0
3.8250,3.78,0
3.8300,3.78,0
3.8350,9.38,0
3.8400,-8.18,0
3.8450,16.92,0
3.8500,16.92,0
3.8550,16.92,0
3.8600,16.92,0
3.8650,6.44,0
3.8700,6.44,0
3.8750,14.24,0
3.8800,14.24,0
3.8850,8.43,0
3.8900,20.17,0
3.8950,20.17,0
3.9000,-1.24,0
3.9050,7.22,0
3.9100,7.22,0
3.9150,7.22,0
3.9200,15.39,0
3.9250,15.39,0
3.9300,-11.14,0
3.9350,-11.14,0
3.9400,-1.33,0
3.9450,-1.33,0
3.9500,2.38,0
3.9550,2.38,0
3.9600,2.38,0
3.9650,2.38,0
3.9700,2.38,0
3.9750,-1.53,0
3.9800,-1.53,0
3.9850,-1.53,0
3.9900,6.57,0
3.9950,17.34,0
4.0000,-7.77,0
4.0050,2.38,0
4.0100,18.74,0
4.0150,-3.75,0
4.0200,-3.75,0
4.0250,19.65,0
4.0300,11.53,0
4.0350,-7.65,0
4.0400,-7.65,0
4.0450,7.44,0
4.0500,7.44,0
4.0550,-4.26,0
4.0600,-7.44,0
4.0650,25.81,0
4.0700,19.59,0
4.0750,19.59,0
4.0800,9.74,0
4.0850,9.74,0
4.0900,9.74,0
4.0950,-6.63,0
4.1000,-6.63,0
4.1050,20.25,0
4.1100,-7.44,0
4.1150,20.25,0
4.1200,10.04,0
4.1250,10.04,0
4.1300,5.46,0
4.1350,5.46,0
4.1400,5.46,0
4.1450,21.37,0
4.1500,21.37,0
4.1550,-10.44,0
4.1600,-10.44,0
4.1650,6.63,0
4.1700,6.63,0
4.1750,-4.11,0
4.1800,-4.11,0
4.1850,-4.11,0
4.1900,-4.11,0
4.1950,-6.20,0
4.2000,-6.20,0
4.2050,11.59,0
4.2100,11.59,0
4.2150,15.84,0
4.2200,-3.20,0
4.2250,20.68,0
4.2300,20.23,0
4.2350,-4.07,0
4.2400,-4.07,0
4.2450,-4.07,0
4.2500,2.65,0
4.2550,4.06,0
4.2600,4.06,0
4.2650,21.25,0
4.2700,21.25,0
4.2750,-7.73,0
4.2800,-3.65,0
4.2850,-7.73,0
4.2900,-7.73,0
4.2950,-7.73,0
4.3000,-7.73,0
4.3050,4.18,0
4.3100,4.06,0
4.3150,21.05,0
4.3200,-10.09,0
4.3250,-10.09,0
4.3300,9.89,0
4.3350,9.89,0
4.3400,-6.28,0
4.3450,-6.28,0
4.3500,20.51,0
4.3550,20.51,0
4.3600,20.51,0
4.3650,20.51,0
4.3700,13.66,0
4.3750,13.66,0
4.3800,13.66,0
4.3850,-6.86,0
4.3900,-6.86,0
4.3950,-7.90,0
4.4000,-7.90,0
4.4050,-7.90,0
4.4100,-7.90,0
4.4150,6.94,0
4.4200,17.80,0
4.4250,-3.01,0
4.4300,-3.01,0
4.4350,-7.60,0
4.4400,-7.60,0
4.4450,12.29,0
4.4500,12.29,0
4.4550,5.06,0
4.4600,5.06,0
4.4650,-5.91,0
4.4700,-5.91,0
4.4750,-5.91,0
4.4800,-5.91,0
4.4850,-7.28,0
4.4900,-7.28,0
4.4950,6.14,0
4.5000,6.14,0
4.5050,-2.47,0
4.5100,-2.47,0
4.5150,-7.59,0
4.5200,-7.59,0
4.5250,-7.59,0
4.5300,-7.59,0
4.5350,7.65,0
4.5400,7.65,0
4.5450,-5.19,0
4.5500,-5.19,0
4.5550,-9.71,0
4.5600,-9.71,0
4.5650,12.87,0
4.5700,12.87,0
4.5750,12.87,0
4.5800,12.87,0
4.5850,-4.99,0
4.5900,-4.99,0
4.5950,19.75,0
4.6000,19.75,0
4.6050,16.64,0
4.6100,16.64,0
4.6150,16.64,0
4.6200,-7.59,0
4.6250,5.75,0
4.6300,5.75,0
4.6350,4.54,0
4.6400,-7.27,0
4.6450,5.75,0
4.6500,-3.33,0
4.6550,19.52,0
4.6600,19.52,0
4.6650,19.52,0
4.6700,19.52,0
4.6750,19.52,0
4.6800,-11.02,0
4.6850,-11.02,0
4.6900,17.54,0
4.6950,17.54,0
4.7000,5.35,0
4.7050,-2.52,0
4.7100,-2.52,0
4.7150,-2.52,0
4.7200,20.59,0
4.7250,20.59,0
4.7300,15.05,0
4.7350,15.05,0
4.7400,3.06,0
4.7450,3.06,0
4.7500,3.06,0
4.7550,3.06,0
4.7600,3.06,0
4.7650,-8.23,0
4.7700,-8.23,0
4.7750,2.85,0
4.7800,2.85,0
4.7850,-3.08,0
4.7900,15.89,0
4.7950,22.09,0
4.8000,22.09,0
4.8050,-9.85,0
4.8100,-9.85,0
4.8150,17.79,0
4.8200,17.79,0
4.8250,-8.23,0
4.8300,17.79,0
4.8350,-1.77,0
4.8400,-1.77,0
4.8450,11.08,0
4.8500,11.08,0
4.8550,-8.95,0
4.8600,-8.95,0
4.8650,21.60,0
4.8700,8.03,0
4.8750,-3.18,0
4.8800,-3.18,0
4.8850,12.27,0
4.8900,-8.19,0
4.8950,-10.35,0
4.9000,-10.35,0
4.9050,21.83,0
4.9100,21.83,0
4.9150,-4.09,0
4.9200,-4.09,0
4.9250,4.77,0
4.9300,15.71,0
4.9350,-10.48,0
4.9400,-10.48,0
4.9450,-10.48,0
4.9500,19.95,0
4.9550,-9.35,0
4.9600,7.39,0
4.9650,-10.60,0
4.9700,10.62,0
4.9750,10.62,0
4.9800,10.62,0
4.9850,21.04,0
4.9900,21.04,0
4.9950,21.04,0
5.0000,-5.00,0
5.0050,13.34,0
5.0100,13.34,0
5.0150,-8.68,0
5.0200,-10.60,0
5.0250,-8.68,0
5.0300,-8.68,0
5.0350,-8.68,0
5.0400,-4.29,0
5.0450,-4.29,0
5.0500,8.98,0
5.0550,8.98,0
5.0600,-9.23,0
5.0650,-9.23,0
5.0700,19.73,0
5.0750,19.73,0
5.0800,-6.17,0
5.0850,-6.17,0
5.0900,8.46,0
5.0950,8.46,0
5.1000,1.79,0
5.1050,12.17,0
5.1100,12.17,0
5.1150,12.17,0
5.1200,21.35,0
5.1250,21.35,0
5.1300,12.48,0
5.1350,12.48,0
5.1400,-9.62,0
5.1450,-9.62,0
5.1500,-9.62,0
5.1550,-9.62,0
5.1600,18.52,0
5.1650,-5.18,0
5.1700,8.25,0
5.1750,8.25,0
5.1800,23.59,0
5.1850,-7.61,0
5.1900,20.06,0
5.1950,20.06,0
5.2000,20.06,0
5.2050,20.06,0
5.2100,9.31,0
5.2150,9.31,0
5.2200,8.94,0
5.2250,8.94,0
5.2300,23.03,0
5.2350,23.03,0
5.2400,7.38,0
5.2450,-5.52,0
5.2500,10.76,0
5.2550,18.84,0
5.2600,10.02,0
5.2650,-8.97,0
5.2700,-8.97,0
5.2750,-8.97,0
5.2800,-3.89,0
5.2850,-3.89,0
5.2900,5.58,0
5.2950,5.58,0
5.3000,-0.56,0
5.3050,-9.27,0
5.3100,-9.27,0
5.3150,15.09,0
5.3200,20.42,0
5.3250,20.42,0
5.3300,10.23,0
5.3350,10.27,0
5.3400,10.27,0
5.3450,10.27,0
5.3500,-7.83,0
5.3550,10.50,0
5.3600,-6.50,0
5.3650,-6.50,0
5.3700,-6.50,0
5.3750,-6.50,0
5.3800,10.49,0
5.3850,-10.34,0
5.3900,-10.34,0
5.3950,-10.34,0
5.4000,-6.75,0
5.4050,-6.75,0
5.4100,10.15,0
5.4150,10.15,0
5.4200,10.15,0
5.4250,10.15,0
5.4300,-7.00,0
5.4350,-7.00,0
5.4400,18.10,0
5.4450,18.10,0
5.4500,12.31,0
5.4550,12.31,0
5.4600,9.30,0
5.4650,18.10,0
5.4700,-5.41,0
5.4750,20.98,0
5.4800,20.98,0
5.4850,-7.30,0
5.4900,-7.30,0
5.4950,-7.30,0
5.5000,-7.30,0
5.5050,-7.30,0
5.5100,12.51,0
5.5150,12.51,0
5.5200,-5.36,0
5.5250,-5.36,0
5.5300,-5.36,0
5.5350,-5.36,0
5.5400,-5.36,0
5.5450,-5.36,0
5.5500,8.24,0
5.5550,8.24,0
5.5600,19.16,0
5.5650,19.16,0
5.5700,10.66,0
5.5750,10.66,0
5.5800,9.75,0
5.5850,-5.41,0
5.5900,9.75,0
5.5950,12.32,0
5.6000,21.05,0
5.6050,21.05,0
5.6100,-5.45,0
5.6150,-5.45,0
5.6200,12.14,0
5.6250,12.14,0
5.6300,-8.94,0
5.6350,-8.94,0
5.6400,-8.94,0
5.6450,-6.38,0
5.6500,-6.38,0
5.6550,-9.95,0
5.6600,-9.95,0
5.6650,17.79,0
5.6700,18.74,0
5.6750,1.86,0
5.6800,1.19,0
5.6850,1.19,0
5.6900,16.16,0
5.6950,5.23,0
5.7000,16.16,0
5.7050,16.16,0
5.7100,20.40,0
5.7150,20.40,0
5.7200,0.31,0
5.7250,0.31,0
5.7300,16.98,0
5.7350,-11.88,0
5.7400,-11.88,0
5.7450,-11.88,0
5.7500,-11.88,0
5.7550,-2.33,0
5.7600,-2.33,0
5.7650,0.15,0
5.7700,0.15,0
5.7750,-9.09,0
5.7800,-17.37,0
5.7850,16.21,0
5.7900,16.21,0
5.7950,15.22,0
5.8000,0.68,0
5.8050,0.68,0
5.8100,1.58,0
5.8150,1.58,0
5.8200,-6.62,0
5.8250,0.68,0
5.8300,19.24,0
5.8350,19.24,0
5.8400,17.57,0
5.8450,17.57,0
5.8500,18.70,0
5.8550,18.70,0
5.8600,-11.26,0
5.8650,-11.26,0
5.8700,-11.26,0
5.8750,-11.26,0
5.8800,1.42,0
5.8850,1.42,0
5.8900,2.51,0
5.8950,2.51,0
5.9000,-11.98,0
5.9050,-11.98,0
5.9100,16.75,0
5.9150,16.75,0
5.9200,16.20,0
5.9250,16.75,0
5.9300,15.43,0
5.9350,1.44,0
5.9400,14.98,0
5.9450,14.98,0
5.9500,-9.28,0
5.9550,-9.28,0
5.9600,-8.68,0
5.9650,0.31,0
5.9700,3.10,0
5.9750,3.10,0
5.9800,19.40,0
5.9850,19.40,0
5.9900,-12.03,0
5.9950,-12.03,0
6.0000,1.27,0
6.0050,3.63,0
6.0100,3.63,0
6.0150,17.68,0
6.0200,17.68,0
6.0250,17.68,0
6.0300,-9.08,0
6.0350,-9.08,0
6.0400,-9.08,0
6.0450,-9.08,0
6.0500,3.38,0
6.0550,3.38,0
6.0600,19.35,0
6.0650,15.30,0
6.0700,-8.95,0
6.0750,19.06,0
6.0800,19.06,0
6.0850,-2.36,0
6.0900,-2.36,0
6.0950,9.48,0
6.1000,15.89,0
6.1050,-9.94,0
6.1100,-9.94,0
6.1150,-9.94,0
6.1200,-1.18,0
6.1250,-1.18,0
6.1300,0.74,0
6.1350,0.74,0
6.1400,0.74,0
6.1450,0.74,0
6.1500,-10.57,0
6.1550,18.17,0
6.1600,18.17,0
6.1650,2.41,0
6.1700,2.41,0
6.1750,2.41,0
6.1800,2.41,0
6.1850,2.41,0
6.1900,2.41,0
6.1950,19.91,0
6.2000,19.91,0
6.2050,19.91,0
6.2100,-1.67,0
6.2150,-1.67,0
6.2200,16.55,0
6.2250,-1.67,0
6.2300,-1.67,0
6.2350,18.59,0
6.2400,18.59,0
6.2450,-1.30,0
6.2500,-1.30,0
6.2550,5.24,0
6.2600,5.24,0
6.2650,-9.61,0
6.2700,-9.61,0
6.2750,18.06,0
6.2800,18.06,0
6.2850,-2.96,0
6.2900,-2.96,0
6.2950,7.54,0
6.3000,7.54,0
6.3050,15.26,0
6.3100,15.26,0
6.3150,-5.37,0
6.3200,19.25,0
6.3250,-1.62,0
6.3300,-1.62,0
6.3350,16.14,0
6.3400,5.24,0
6.3450,-10.22,0
6.3500,-10.22,0
6.3550,-10.22,0
6.3600,-10.22,0
6.3650,-10.22,0
6.3700,-10.22,0
6.3750,-10.22,0
6.3800,4.88,0
6.3850,-12.53,0
6.3900,-1.53,0
6.3950,-12.53,0
6.4000,19.05,0
6.4050,19.05,0
6.4100,-3.31,0
6.4150,-3.31,0
6.4200,7.42,0
6.4250,7.42,0
6.4300,14.28,0
6.4350,14.28,0
6.4400,7.74,0
6.4450,18.39,0
6.4500,-3.27,0
6.4550,-3.27,0
6.4600,8.40,0
6.4650,8.40,0
6.4700,14.35,0
6.4750,14.35,0
6.4800,6.45,0
6.4850,6.45,0
6.4900,-4.16,0
6.4950,-4.16,0
6.5000,-9.77,0
6.5050,-9.77,0
6.5100,9.92,0
6.5150,9.92,0
6.5200,4.59,0
6.5250,4.59,0
6.5300,-3.60,0
6.5350,-3.60,0
6.5400,18.54,0
6.5450,18.54,0
6.5500,16.76,0
6.5550,16.76,0
6.5600,5.00,0
6.5650,16.76,0
6.5700,4.72,0
6.5750,4.72,0
6.5800,21.24,0
6.5850,21.24,0
6.5900,21.24,0
6.5950,21.24,0
6.6000,6.43,0
6.6050,6.43,0
6.6100,-5.66,0
6.6150,-5.66,0
6.6200,20.40,0
6.6250,20.40,0
6.6300,-7.29,0
6.6350,-7.29,0
6.6400,-7.29,0
6.6450,-7.29,0
6.6500,-3.71,0
6.6550,-3.71,0
6.6600,22.95,0
6.6650,12.40,0
6.6700,12.40,0
6.6750,5.08,0
6.6800,5.08,0
6.6850,5.08,0
6.6900,5.08,0
6.6950,5.08,0
6.7000,-2.01,0
6.7050,-2.01,0
6.7100,-8.78,0
6.7150,-8.78,0
6.7200,4.10,0
6.7250,-3.19,0
6.7300,-3.19,0
6.7350,-3.19,0
6.7400,-3.19,0
6.7450,-9.74,0
6.7500,-9.74,0
6.7550,11.72,0
6.7600,11.72,0
6.7650,11.72,0
6.7700,-3.63,0
6.7750,-3.63,0
6.7800,20.50,0
6.7850,20.50,0
6.7900,-8.87,0
6.7950,13.84,0
6.8000,13.84,0
6.8050,-2.01,0
6.8100,2.38,0
6.8150,2.38,0
6.8200,2.38,0
6.8250,2.38,0
6.8300,-2.95,0
6.8350,-2.95,0
6.8400,3.48,0
6.8450,3.48,0
6.8500,3.48,0
6.8550,-1.08,0
6.8600,-1.08,0
6.8650,3.85,0
6.8700,-9.67,0
6.8750,-9.67,0
6.8800,12.81,0
6.8850,12.81,0
6.8900,4.99,0
6.8950,-2.27,0
6.9000,-2.27,0
6.9050,21.44,0
6.9100,21.44,0
6.9150,13.89,0
6.9200,13.89,0
6.9250,3.47,0
6.9300,3.47,0
6.9350,3.47,0
6.9400,20.13,0
6.9450,19.83,0
6.9500,19.83,0
6.9550,-7.49,0
6.9600,-7.49,0
6.9650,3.84,0
6.9700,16.05,0
6.9750,4.66,0
6.9800,-1.95,0
6.9850,-10.60,0
6.9900,-10.60,0
6.9950,13.89,0
7.0000,-10.60,0
7.0050,-10.60,0
7.0100,15.59,0
7.0150,-2.24,0
7.0200,12.76,0
7.0250,-2.24,0
7.0300,21.47,0
7.0350,21.47,0
7.0400,-12.03,0
7.0450,-9.09,0
7.0500,5.31,0
7.0550,5.31,0
7.0600,-0.42,0
7.0650,-0.42,0
7.0700,20.52,0
7.0750,20.52,0
7.0800,-10.77,0
7.0850,-10.77,0
7.0900,16.00,0
7.0950,16.00,0
7.1000,-2.08,0
7.1050,-2.08,0
7.1100,19.52,0
7.1150,-9.90,0
7.1200,-9.90,0
7.1250,-9.90,0
7.1300,17.14,0
7.1350,-2.88,0
7.1400,-2.88,0
7.1450,-2.88,0
7.1500,20.13,0
7.1550,20.13,0
7.1600,-8.48,0
7.1650,-8.48,0
7.1700,3.72,0
7.1750,3.72,0
7.1800,3.72,0
7.1850,14.38,0
7.1900,18.72,0
7.1950,18.72,0
7.2000,-9.91,0
7.2050,14.38,0
7.2100,4.23,0
7.2150,4.23,0
7.2200,-3.22,0
7.2250,-3.22,0
7.2300,-3.22,0
7.2350,-7.34,0
7.2400,5.33,0
7.2450,16.58,0
7.2500,16.58,0
7.2550,16.58,0
7.2600,-1.88,0
7.2650,-1.88,0
7.2700,-1.88,0
7.2750,-1.88,0
7.2800,-1.88,0
7.2850,-8.72,0
7.2900,-8.72,0
7.2950,20.51,0
7.3000,20.51,0
7.3050,-2.21,0
7.3100,-2.21,0
7.3150,14.28,0
7.3200,14.28,0
7.3250,-10.54,0
7.3300,-10.54,0
7.3350,-10.54,0
7.3400,-10.54,0
7.3450,9.28,0
7.3500,22.12,0
7.3550,5.88,0
7.3600,5.88,0
7.3650,5.88,0
7.3700,-8.06,0
7.3750,19.19,0
7.3800,-0.78,0
7.3850,19.19,0
7.3900,-4.74,0
7.3950,-4.74,0
7.4000,8.58,0
7.4050,8.58,0
7.4100,10.09,0
7.4150,10.09,0
7.4200,22.62,0
7.4250,14.20,0
7.4300,-5.85,0
7.4350,-5.85,0
7.4400,13.02,0
7.4450,13.02,0
7.4500,-9.44,0
7.4550,-9.44,0
7.4600,-9.44,0
7.4650,-9.44,0
7.4700,-9.44,0
7.4750,-4.11,0
7.4800,8.62,0
7.4850,-8.17,0
7.4900,-8.17,0
7.4950,19.65,0
7.5000,15.50,0
7.5050,19.65,0
7.5100,19.65,0
7.5150,19.65,0
7.5200,3.91,0
7.5250,7.72,0
7.5300,11.91,0
7.5350,23.47,0
7.5400,23.47,0
7.5450,-5.59,0
7.5500,-5.64,0
7.5550,7.03,0
7.5600,7.03,0
7.5650,10.39,0
7.5700,10.39,0
7.5750,7.74,0
7.5800,-10.02,0
7.5850,-10.02,0
7.5900,-4.92,0
7.5950,-4.92,0
7.6000,9.56,0
7.6050,9.56,0
7.6100,10.75,0
7.6150,20.50,0
7.6200,20.50,0
7.6250,20.50,0
7.6300,20.50,0
7.6350,20.50,0
7.6400,20.50,0
7.6450,20.50,0
7.6500,6.66,0
7.6550,6.66,0
7.6600,20.63,0
7.6650,-8.00,0
7.6700,-8.00,0
7.6750,21.64,0
7.6800,-8.00,0
7.6850,-8.00,0
7.6900,11.35,0
7.6950,19.28,0
7.7000,-8.56,0
7.7050,-8.56,0
7.7100,-10.52,0
7.7150,-4.90,0
7.7200,8.99,0
7.7250,8.99,0
7.7300,8.99,0
7.7350,-4.92,0
7.7400,-6.02,0
7.7450,-6.02,0
7.7500,20.74,0
7.7550,20.74,0
7.7600,8.37,0
7.7650,8.37,0
7.7700,-11.12,0
7.7750,9.78,0
7.7800,-9.75,0
7.7850,15.90,0
7.7900,23.69,0
7.7950,23.69,0
7.8000,-5.76,0
7.8050,-9.44,0
7.8100,10.23,0
7.8150,10.23,0
7.8200,-9.92,0
7.8250,-9.92,0
7.8300,20.14,0
7.8350,-11.96,0
7.8400,10.50,0
7.8450,10.50,0
7.8500,-5.95,0
7.8550,10.50,0
7.8600,-5.65,0
7.8650,1.35,0
7.8700,20.46,0
7.8750,20.46,0
7.8800,10.49,0
7.8850,10.49,0
7.8900,11.26,0
7.8950,11.26,0
7.9000,11.26,0
7.9050,11.26,0
7.9100,20.48,0
7.9150,20.48,0
7.9200,-5.65,0
7.9250,20.48,0
7.9300,7.17,0
7.9350,11.81,0
7.9400,11.81,0
7.9450,11.81,0
7.9500,11.81,0
7.9550,11.81,0
7.9600,-6.57,0
7.9650,-6.57,0
7.9700,7.30,0
7.9750,7.30,0
7.9800,-12.26,0
7.9850,18.41,0
7.9900,18.41,0
7.9950,-4.67,0
8.0000,-4.67,0
8.0050,10.93,0
8.0100,6.95,0
8.0150,7.52,0
8.0200,7.52,0
8.0250,7.52,0
8.0300,22.67,0
8.0350,22.67,0
8.0400,-6.81,0
8.0450,-6.81,0
8.0500,9.47,0
8.0550,10.71,0
8.0600,10.71,0
8.0650,10.71,0
8.0700,-8.58,0
8.0750,-6.91,0
8.0800,15.73,0
8.0850,-6.91,0
8.0900,8.40,0
8.0950,1.49,0
8.1000,9.76,0
8.1050,9.76,0
8.1100,-6.79,0
8.1150,-6.79,0
8.1200,2.52,0
8.1250,2.52,0
8.1300,19.03,0
8.1350,17.67,0
8.1400,17.67,0
8.1450,17.67,0
8.1500,1.40,0
8.1550,-12.63,0
8.1600,-0.19,0
8.1650,-0.19,0
8.1700,18.66,0
8.1750,-8.64,0
8.1800,-19.79,0
8.1850,1.93,0
8.1900,1.93,0
8.1950,1.06,0
8.2000,1.06,0
8.2050,21.28,0
8.2100,21.28,0
8.2150,-9.75,0
8.2200,-9.75,0
8.2250,16.11,0
8.2300,16.11,0
8.2350,2.54,0
8.2400,9.55,0
8.2450,26.29,0
8.2500,16.81,0
8.2550,-12.03,0
8.2600,-12.03,0
8.2650,15.82,0
8.2700,15.82,0
8.2750,0.18,0
8.2800,0.18,0
8.2850,16.72,0
8.2900,16.72,0
8.2950,-7.97,0
8.3000,-7.97,0
8.3050,0.12,0
8.3100,0.12,0
8.3150,0.12,0
8.3200,-2.51,0
8.3250,-2.51,0
8.3300,-9.01,0
8.3350,16.55,0
8.3400,-9.27,0
8.3450,-9.27,0
8.3500,15.74,0
8.3550,1.38,0
8.3600,1.38,0
8.3650,17.14,0
8.3700,17.14,0
8.3750,17.14,0
8.3800,-9.77,0
8.3850,-9.77,0
8.3900,-0.42,0
8.3950,-0.42,0
8.4000,-0.42,0
8.4050,-0.42,0
8.4100,18.51,0
8.4150,11.37,0
8.4200,-10.13,0
8.4250,1.46,0
8.4300,1.46,0
8.4350,1.46,0
8.4400,1.46,0
8.4450,1.46,0
8.4500,1.46,0
8.4550,-8.12,0
8.4600,-8.12,0
8.4650,16.30,0
8.4700,16.30,0
8.4750,16.30,0
8.4800,3.19,0
8.4850,3.19,0
8.4900,17.57,0
8.4950,17.57,0
8.5000,-8.13,0
8.5050,-8.13,0
8.5100,18.87,0
8.5150,0.31,0
8.5200,0.31,0
8.5250,14.93,0
8.5300,14.93,0
8.5350,14.93,0
8.5400,14.93,0
8.5450,14.93,0
8.5500,-9.36,0
8.5550,-9.36,0
8.5600,3.08,0
8.5650,3.08,0
8.5700,3.08,0
8.5750,3.08,0
8.5800,-9.12,0
8.5850,-9.12,0
8.5900,18.01,0
8.5950,18.01,0
8.6000,2.91,0
8.6050,2.91,0
8.6100,15.68,0
8.6150,15.68,0
8.6200,15.68,0
8.6250,15.68,0
8.6300,0.31,0
8.6350,15.68,0
8.6400,17.69,0
8.6450,17.69,0
8.6500,16.00,0
8.6550,16.00,0
8.6600,10.67,0
8.6650,9.69,0
8.6700,-9.39,0
8.6750,-9.39,0
8.6800,-2.78,0
8.6850,-2.78,0
8.6900,0.16,0
8.6950,0.16,1
8.7000,-7.72,0
8.7050,-6.11,0
8.7100,16.00,0
8.7150,15.62,0
8.7200,15.62,0
8.7250,4.50,0
8.7300,4.50,0
8.7350,4.50,0
8.7400,16.24,0
8.7450,15.65,0
8.7500,15.65,0
8.7550,-0.91,0
8.7600,-0.91,0
8.7650,-0.91,0
8.7700,-0.91,0
8.7750,-0.91,0
8.7800,17.85,0
8.7850,-10.58,0
8.7900,-10.58,0
8.7950,-10.58,0
8.8000,1.48,0
8.8050,1.48,0
8.8100,0.59,0
8.8150,0.59,0
8.8200,17.99,0
8.8250,17.99,0
8.8300,-9.05,0
8.8350,-9.05,0
8.8400,16.97,0
8.8450,16.97,0
8.8500,5.04,0
8.8550,5.04,0
8.8600,16.80,0
8.8650,16.80,0
8.8700,-9.69,0
8.8750,-8.96,0
8.8800,-1.71,0
8.8850,-1.71,0
8.8900,-1.71,0
8.8950,2.07,0
8.9000,-8.88,0
8.9050,-9.07,0
8.9100,-9.07,0
8.9150,17.83,0
8.9200,17.83,0
8.9250,1.50,0
8.9300,-1.41,0
8.9350,-6.83,0
8.9400,-6.83,0
8.9450,9.62,0
8.9500,-7.23,0
8.9550,-4.40,0
8.9600,-4.40,0
8.9650,21.89,0
8.9700,21.89,0
8.9750,-8.65,0
8.9800,-8.65,0
8.9850,11.59,0
8.9900,11.59,0
8.9950,8.99,0
9.0000,8.99,0
9.0050,8.99,0
9.0100,8.99,0
9.0150,20.15,0
9.0200,20.15,0
9.0250,7.91,0
9.0300,8.99,0
9.0350,7.91,0
9.0400,7.91,0
9.0450,7.91,0
9.0500,7.91,0
9.0550,7.91,0
9.0600,-7.10,0
9.0650,-7.10,0
9.0700,11.67,0
9.0750,11.67,0
9.0800,-7.36,0
9.0850,-7.36,0
9.0900,20.72,0
9.0950,20.72,0
9.1000,-6.87,0
9.1050,-6.87,0
9.1100,11.50,0
9.1150,11.50,0
9.1200,7.08,0
9.1250,7.08,0
9.1300,22.13,0
9.1350,22.13,0
9.1400,-8.78,0
9.1450,-9.34,0
9.1500,10.63,0
9.1550,3.83,0
9.1600,9.68,0
9.1650,9.68,0
9.1700,-9.39,0
9.1750,19.31,0
9.1800,20.90,0
9.1850,19.31,0
9.1900,11.67,0
9.1950,11.67,0
9.2000,9.16,0
9.2050,9.16,0
9.2100,-4.89,0
9.2150,-4.89,0
9.2200,22.42,0
9.2250,22.42,0
9.2300,13.12,0
9.2350,13.12,0
9.2400,8.11,0
9.2450,8.11,0
9.2500,19.69,0
9.2550,19.69,0
9.2600,-10.78,0
9.2650,-10.78,0
9.2700,-10.78,0
9.2750,-10.78,0
9.2800,11.44,0
9.2850,11.44,0
9.2900,-7.62,0
9.2950,-7.62,0
9.3000,-7.54,0
9.3050,-7.54,0
9.3100,10.45,0
9.3150,10.45,0
9.3200,10.45,0
9.3250,10.45,0
9.3300,-6.94,0
9.3350,-13.03,0
9.3400,22.72,0
9.3450,22.72,0
9.3500,22.72,0
9.3550,22.72,0
9.3600,-9.35,0
9.3650,-9.35,0
9.3700,23.26,0
9.3750,23.26,0
9.3800,23.26,0
9.3850,23.26,0
9.3900,-8.93,0
9.3950,-8.93,0
9.4000,9.17,0
9.4050,9.17,0
9.4100,-20.70,0
9.4150,-6.00,0
9.4200,19.84,0
9.4250,19.84,0
9.4300,-9.40,0
9.4350,-9.40,0
9.4400,9.68,0
9.4450,11.23,0
9.4500,-7.35,0
9.4550,-11.15,0
9.4600,23.07,0
9.4650,-7.85,0
9.4700,-7.85,0
9.4750,7.44,0
9.4800,7.44,0
9.4850,7.44,0
9.4900,7.44,0
9.4950,-2.12,0
9.5000,21.53,0
9.5050,21.53,0
9.5100,-9.40,0
9.5150,18.55,0
9.5200,7.65,0
9.5250,7.65,0
9.5300,7.65,0
9.5350,7.65,0
9.5400,7.65,0
9.5450,13.74,0
9.5500,-9.07,0
9.5550,-9.07,0
9.5600,10.47,0
9.5650,-6.69,0
9.5700,-6.69,0
9.5750,22.22,0
9.5800,22.22,0
9.5850,-5.40,0
9.5900,-5.40,0
9.5950,14.63,0
9.6000,14.63,0
9.6050,5.36,0
9.6100,5.36,0
9.6150,22.27,0
9.6200,22.27,0
9.6250,-5.06,0
9.6300,-5.06,0
9.6350,9.40,0
9.6400,9.40,0
9.6450,17.62,0
9.6500,-6.06,0
9.6550,-6.06,0
9.6600,-6.06,0
9.6650,-6.97,0
9.6700,6.60,0
9.6750,11.20,0
9.6800,11.20,0
9.6850,-3.93,0
9.6900,-3.93,0
9.6950,21.53,0
9.7000,21.53,0
9.7050,21.53,0
9.7100,21.53,0
9.7150,16.32,0
9.7200,15.02,0
9.7250,7.43,0
9.7300,16.09,0
9.7350,20.70,0
9.7400,19.54,0
9.7450,3.87,0
9.7500,3.87,0
9.7550,-10.64,0
9.7600,-10.64,0
9.7650,-10.64,0
9.7700,-10.64,0
9.7750,-2.03,0
9.7800,-2.03,0
9.7850,3.37,0
9.7900,3.37,0
9.7950,-9.97,0
9.8000,-9.97,0
9.8050,15.31,0
9.8100,15.31,0
9.8150,15.31,0
9.8200,15.31,0
9.8250,5.59,0
9.8300,5.59,0
9.8350,15.72,0
9.8400,15.72,0
9.8450,15.72,0
9.8500,18.36,0
9.8550,17.20,0
9.8600,-2.29,0
9.8650,-2.29,0
9.8700,-2.29,0
9.8750,-2.29,0
9.8800,-2.29,0
9.8850,-2.29,0
9.8900,15.51,0
9.8950,15.51,0
9.9000,-1.90,0
9.9050,-1.90,0
9.9100,4.92,0
9.9150,4.92,0
9.9200,2.65,0
9.9250,13.22,0
9.9300,16.39,0
9.9350,16.39,0
9.9400,16.39,0
9.9450,16.39,0
9.9500,15.19,0
9.9550,4.98,0
9.9600,15.43,0
9.9650,-2.59,0
9.9700,18.81,0
9.9750,18.81,0
9.9800,-1.49,0
9.9850,-1.49,0
9.9900,-1.49,0
9.9950,-1.49,0
10.0000,16.45,0
10.0050,16.45,0
10.0100,-11.01,0
10.0150,-11.01,0
10.0200,17.14,0
10.0250,17.14,0
10.0300,4.85,0
10.0350,4.85,0
10.0400,15.87,0
10.0450,-9.11,0
10.0500,-9.11,0
10.0550,17.56,0
10.0600,17.56,0
10.0650,17.56,0
10.0700,4.53,0
10.0750,13.14,0
10.0800,2.88,0
10.0850,-8.14,0
10.0900,-8.14,0
10.0950,11.67,0
10.1000,17.36,0
10.1050,17.36,0
10.1100,-2.75,0
10.1150,13.61,0
10.1200,13.61,0
10.1250,-7.52,0
10.1300,-7.52,0
10.1350,-4.87,0
10.1400,-2.15,0
10.1450,-2.15,0
10.1500,6.35,0
10.1550,21.05,0
10.1600,15.23,0
10.1650,15.23,0
10.1700,-10.54,0
10.1750,16.54,0
10.1800,16.54,0
10.1850,16.54,0
10.1900,5.94,0
10.1950,5.94,0
10.2000,5.94,0
10.2050,5.94,0
10.2100,-7.74,0
10.2150,14.39,0
10.2200,18.58,0
10.2250,18.58,0
10.2300,0.09,0
10.2350,3.11,0
10.2400,16.16,0
10.2450,16.16,0
10.2500,-8.48,0
10.2550,-8.48,0
10.2600,18.20,0
10.2650,18.20,0
10.2700,5.31,0
10.2750,5.31,0
10.2800,-1.78,0
10.2850,13.03,0
10.2900,13.03,0
10.2950,13.03,0
10.3000,10.83,0
10.3050,17.46,0
10.3100,18.57,0
10.3150,2.19,0
10.3200,15.19,0
10.3250,15.19,0
10.3300,15.19,0
10.3350,13.66,0
10.3400,19.10,0
10.3450,-4.17,0
10.3500,-4.17,0
10.3550,15.20,0
10.3600,15.20,0
10.3650,-8.36,0
10.3700,-8.36,0
10.3750,-8.36,0
10.3800,18.83,0
10.3850,-2.00,0
10.3900,-2.00,0
10.3950,3.70,0
10.4000,3.70,0
10.4050,-10.87,0
10.4100,-10.87,0
10.4150,16.72,0
10.4200,16.72,0
10.4250,-1.83,0
10.4300,5.58,0
10.4350,-1.83,0
10.4400,-1.83,0
10.4450,16.67,0
10.4500,16.67,0
10.4550,19.44,0
10.4600,19.44,0
10.4650,0.45,0
10.4700,0.45,0
10.4750,16.29,0
10.4800,16.29,0
10.4850,-8.92,0
10.4900,11.41,0
10.4950,-8.92,0
10.5000,-8.92,0
10.5050,0.42,0
10.5100,0.42,0
10.5150,6.57,0
10.5200,6.57,0
10.5250,-6.19,0
10.5300,-6.19,0
10.5350,16.70,0
10.5400,16.70,0
10.5450,-0.63,0
10.5500,-0.63,0
10.5550,5.37,0
10.5600,5.37,0
10.5650,12.18,0
10.5700,12.18,0
10.5750,6.73,0
10.5800,20.94,0
10.5850,21.64,0
10.5900,21.64,0
10.5950,-4.09,0
10.6000,-4.09,0
10.6050,10.93,0
10.6100,10.93,0
10.6150,7.27,0
10.6200,-13.20,0
10.6250,7.27,0
10.6300,-4.90,0
10.6350,-6.13,0
10.6400,-6.13,0
10.6450,-6.13,0
10.6500,13.98,0
10.6550,14.02,0
10.6600,4.92,0
10.6650,-2.37,0
10.6700,-2.37,0
10.6750,-2.37,0
10.6800,17.44,0
10.6850,17.44,0
10.6900,10.36,0
10.6950,10.36,0
10.7000,4.34,0
10.7050,4.34,0
10.7100,17.84,0
10.7150,-6.67,0
10.7200,-7.26,0
10.7250,-7.26,0
10.7300,-7.26,0
10.7350,-7.26,0
10.7400,7.84,0
10.7450,-3.10,0
10.7500,-6.07,0
10.7550,-3.10,0
10.7600,-4.76,0
10.7650,-4.76,0
10.7700,10.19,0
10.7750,10.19,0
10.7800,10.19,0
10.7850,10.19,0
10.7900,-3.16,0
10.7950,-3.16,0
10.8000,-3.16,0
10.8050,-3.16,0
10.8100,-6.60,0
10.8150,4.62,0
10.8200,7.84,0
10.8250,4.62,0
10.8300,4.62,0
10.8350,4.62,0
10.8400,-12.05,0
10.8450,21.54,0
10.8500,-4.70,0
10.8550,18.40,0
10.8600,7.47,0
10.8650,-4.05,0
10.8700,13.77,0
10.8750,19.92,0
10.8800,19.92,0
10.8850,14.84,0
10.8900,8.62,0
10.8950,8.62,0
10.9000,8.62,0
10.9050,8.62,0
10.9100,-4.87,0
10.9150,-4.87,0
10.9200,17.23,0
10.9250,17.23,0
10.9300,11.03,0
10.9350,11.03,0
10.9400,6.53,0
10.9450,6.53,0
10.9500,6.53,0
10.9550,6.53,0
10.9600,18.08,0
10.9650,18.08,0
10.9700,15.02,0
10.9750,-2.79,0
10.9800,9.09,0
10.9850,9.09,0
10.9900,-2.14,0
10.9950,18.08,0
11.0000,-2.14,0
11.0050,-2.14,0
11.0100,-2.60,0
11.0150,6.59,0
11.0200,6.59,0
11.0250,6.59,0
11.0300,6.59,0
11.0350,4.02,0
11.0400,6.24,0
11.0450,6.24,0
11.0500,8.90,0
11.0550,8.90,0
11.0600,8.90,0
11.0650,8.90,0
11.0700,8.90,0
11.0750,14.55,0
11.0800,10.41,0
11.0850,14.55,0
11.0900,-2.09,0
11.0950,-2.09,0
11.1000,-2.09,0
11.1050,-2.09,0
11.1100,-2.09,0
11.1150,-2.09,0
11.1200,12.93,0
11.1250,7.36,0
11.1300,-3.19,0
11.1350,-3.19,0
11.1400,8.75,0
11.1450,5.37,0
11.1500,5.37,0
11.1550,-3.28,0
11.1600,-3.28,0
11.1650,16.75,0
11.1700,16.75,0
11.1750,8.03,0
11.1800,8.03,0
11.1850,8.03,0
11.1900,8.03,0
11.1950,-3.20,0
11.2000,-4.17,0
11.2050,-2.85,0
11.2100,-2.85,0
11.2150,-2.85,0
11.2200,-2.85,0
11.2250,12.93,0
11.2300,5.31,0
11.2350,5.31,0
11.2400,2.23,0
11.2450,-2.55,0
11.2500,-2.55,0
11.2550,16.58,0
11.2600,16.58,0
11.2650,-3.13,0
11.2700,-3.13,0
11.2750,-3.13,0
11.2800,-3.13,0
11.2850,-3.13,0
11.2900,19.00,0
11.2950,8.32,0
11.3000,3.23,0
11.3050,8.15,0
11.3100,8.15,0
11.3150,8.15,0
11.3200,2.54,0
11.3250,16.12,0
11.3300,-3.38,0
11.3350,-3.38,0
11.3400,-3.38,0
11.3450,6.11,0
11.3500,6.11,0
11.3550,-2.21,0
11.3600,-2.21,0
11.3650,-2.21,0
11.3700,-2.21,0
11.3750,-2.21,0
11.3800,-2.21,0
11.3850,-4.92,0
11.3900,-4.92,0
11.3950,11.98,0
11.4000,11.98,0
11.4050,3.74,0
11.4100,3.74,0
11.4150,11.07,0
11.4200,11.07,0
11.4250,8.16,0
11.4300,12.59,0
11.4350,2.23,0
11.4400,2.23,0
11.4450,2.23,0
11.4500,2.23,0
11.4550,13.14,0
11.4600,13.14,0
11.4650,13.14,0
11.4700,-7.55,0
11.4750,-7.55,0
11.4800,0.43,0
11.4850,0.43,0
11.4900,2.44,0
11.4950,2.44,0
11.5000,10.84,0
11.5050,7.92,0
11.5100,-6.08,0
11.5150,-6.08,0
11.5200,14.46,0
11.5250,14.46,0
11.5300,5.43,0
11.5350,10.93,0
11.5400,6.60,0
11.5450,-8.58,0
11.5500,-8.58,0
11.5550,-8.58,0
11.5600,15.03,0
11.5650,15.03,0
11.5700,2.38,0
11.5750,15.59,0
11.5800,15.59,0
11.5850,15.59,0
11.5900,-7.06,0
11.5950,-7.06,0
11.6000,-7.06,0
11.6050,-7.06,0
11.6100,-7.06,0
11.6150,-7.06,0
11.6200,2.94,0
11.6250,2.94,0
11.6300,-6.16,0
11.6350,-6.16,0
11.6400,19.48,0
11.6450,19.48,0
11.6500,2.84,0
11.6550,2.84,0
11.6600,14.12,0
11.6650,14.12,0
11.6700,13.77,0
11.6750,13.79,0
11.6800,-3.31,0
11.6850,0.95,0
11.6900,0.95,0
11.6950,1.71,0
11.7000,1.71,0
11.7050,-6.93,0
11.7100,-6.93,0
11.7150,-6.93,0
11.7200,-6.93,0
11.7250,-6.93,0
11.7300,0.96,0
11.7350,1.75,0
11.7400,1.75,0
11.7450,-5.07,0
11.7500,-3.78,0
11.7550,-5.07,0
11.7600,13.10,0
11.7650,13.10,0
11.7700,13.10,0
11.7750,13.10,0
11.7800,4.44,0
11.7850,4.44,0
11.7900,4.44,0
11.7950,4.44,0
11.8000,16.35,0
11.8050,-3.64,0
11.8100,1.60,0
11.8150,1.60,0
11.8200,1.60,0
11.8250,1.60,0
11.8300,11.89,0
11.8350,11.89,0
11.8400,-4.74,0
11.8450,2.21,0
11.8500,2.21,0
11.8550,2.35,0
11.8600,2.35,0
11.8650,14.81,0
11.8700,14.81,0
11.8750,14.81,0
11.8800,-1.53,0
11.8850,-1.53,0
11.8900,13.69,0
11.8950,13.69,0
11.9000,0.82,0
11.9050,9.46,0
11.9100,9.46,0
11.9150,9.46,0
11.9200,-4.59,0
11.9250,-4.59,0
11.9300,2.99,0
11.9350,2.99,0
11.9400,2.99,0
11.9450,2.99,0
11.9500,12.13,0
11.9550,-4.97,0
11.9600,-4.97,0
11.9650,-4.97,0
11.9700,-0.29,0
11.9750,-0.29,0
11.9800,-0.29,0
11.9850,-0.29,0
11.9900,-0.54,0
11.9950,-5.83,0
12.0000,-5.83,0
12.0050,-5.83,0
12.0100,-5.83,0
12.0150,-5.83,0
12.0200,3.84,0
12.0250,3.84,0
12.0300,13.02,0
12.0350,13.02,0
12.0400,13.02,0
12.0450,13.02,0
12.0500,11.08,0
12.0550,11.08,0
12.0600,11.08,0
12.0650,11.08,0
12.0700,-0.33,0
12.0750,-6.24,0
12.0800,-6.24,0
12.0850,-6.24,0
12.0900,-6.24,0
12.0950,-6.24,0
12.1000,3.34,0
12.1050,0.85,0
12.1100,0.85,0
12.1150,0.85,0
12.1200,-3.66,0
12.1250,-5.19,0
12.1300,15.90,0
12.1350,15.90,0
12.1400,15.90,0
12.1450,4.11,0
12.1500,5.17,0
12.1550,15.44,0
12.1600,15.44,0
12.1650,15.80,0
12.1700,15.80,0
12.1750,1.43,0
12.1800,1.43,0
12.1850,1.10,0
12.1900,1.10,0
12.1950,15.10,0
12.2000,15.10,0
12.2050,7.69,0
12.2100,7.69,0
12.2150,-3.99,0
12.2200,-3.99,0
12.2250,-6.31,0
12.2300,-6.31,0
12.2350,-6.31,0
12.2400,-6.31,0
12.2450,10.26,0
12.2500,10.26,0
12.2550,20.49,0
12.2600,20.49,0
12.2650,20.49,0
12.2700,20.49,0
12.2750,20.49,0
12.2800,20.49,0
12.2850,9.05,0
12.2900,9.05,0
12.2950,15.63,0
12.3000,17.81,0
12.3050,-4.33,0
12.3100,-4.33,0
12.3150,-4.33,0
12.3200,-4.33,0
12.3250,-4.33,0
12.3300,7.76,0
12.3350,7.76,0
12.3400,7.76,0
12.3450,18.43,0
12.3500,18.43,0
12.3550,7.76,0
12.3600,8.48,0
12.3650,6.47,0
12.3700,6.47,0
12.3750,-7.81,0
12.3800,17.77,0
12.3850,19.90,0
12.3900,19.90,0
12.3950,8.46,0
12.4000,8.46,0
12.4050,8.46,0
12.4100,10.26,0
12.4150,10.26,0
12.4200,19.07,0
12.4250,19.07,0
12.4300,-3.55,0
12.4350,-3.55,0
12.4400,-3.55,0
12.4450,-3.55,0
12.4500,12.02,0
12.4550,12.02,0
12.4600,-8.18,0
12.4650,-8.18,0
12.4700,-5.20,0
12.4750,-5.20,0
12.4800,9.47,0
12.4850,9.47,0
12.4900,9.47,0
12.4950,9.47,0
12.5000,-5.16,0
12.5050,-5.16,0
12.5100,19.45,0
12.5150,8.67,0
12.5200,8.67,0
12.5250,14.95,0
12.5300,6.84,0
12.5350,-7.06,0
12.5400,-7.06,0
12.5450,-7.06,0
12.5500,18.81,0
12.5550,18.81,0
12.5600,-4.96,0
12.5650,-10.67,0
12.5700,8.79,0
12.5750,3.87,0
12.5800,-6.89,0
12.5850,20.88,0
12.5900,20.88,0
12.5950,20.88,0
12.6000,6.64,0
12.6050,6.64,0
12.6100,6.64,0
12.6150,-4.52,0
12.6200,-4.52,0
12.6250,21.42,0
12.6300,21.42,0
12.6350,21.42,0
12.6400,8.83,0
12.6450,8.83,0
12.6500,8.27,0
12.6550,8.27,0
12.6600,8.27,0
12.6650,8.27,0
12.6700,21.22,0
12.6750,-3.05,0
12.6800,-3.05,0
12.6850,-3.05,0
12.6900,16.55,0
12.6950,9.60,0
12.7000,9.60,0
12.7050,9.60,0
12.7100,-7.31,0
12.7150,-7.31,0
12.7200,-7.31,0
12.7250,9.87,0
12.7300,9.87,0
12.7350,-8.06,0
12.7400,-4.74,0
12.7450,19.77,0
12.7500,19.77,0
12.7550,19.77,0
12.7600,-5.07,0
12.7650,-5.07,0
12.7700,9.95,0
12.7750,10.63,0
12.7800,10.63,0
12.7850,10.63,0
12.7900,18.47,0
12.7950,18.47,0
12.8000,-6.24,0
12.8050,7.58,0
12.8100,7.58,0
12.8150,14.41,0
12.8200,-5.47,0
12.8250,-5.47,0
12.8300,-5.47,0
12.8350,-5.47,0
12.8400,-3.79,0
12.8450,8.63,0
12.8500,8.63,0
12.8550,-7.32,0
12.8600,-4.46,0
12.8650,-7.32,0
12.8700,16.76,0
12.8750,16.76,0
12.8800,16.76,0
12.8850,16.76,0
12.8900,7.90,0
12.8950,7.90,0
12.9000,8.41,0
12.9050,19.22,0
12.9100,19.22,0
12.9150,0.47,0
12.9200,0.47,0
12.9250,0.47,0
12.9300,7.30,0
12.9350,9.45,0
12.9400,9.45,0
12.9450,9.45,0
12.9500,16.76,0
12.9550,-4.88,0
12.9600,-4.88,0
12.9650,-4.88,0
12.9700,-0.39,0
12.9750,-0.39,0
12.9800,4.26,0
12.9850,16.75,0
12.9900,-5.71,0
12.9950,-5.71,0
13.0000,17.22,0
13.0050,17.22,0
13.0100,5.90,0
13.0150,5.90,0
13.0200,11.50,0
13.0250,11.50,0
13.0300,3.77,0
13.0350,3.77,0
13.0400,3.77,0
13.0450,3.77,0
13.0500,15.80,0
13.0550,15.80,0
13.0600,15.80,0
13.0650,15.80,0
13.0700,11.56,0
13.0750,0.95,0
13.0800,0.95,0
13.0850,0.95,0
13.0900,11.69,0
13.0950,11.69,0
13.1000,-8.12,0
13.1050,-8.12,0
13.1100,6.11,0
13.1150,12.55,0
13.1200,1.03,0
13.1250,1.03,0
13.1300,15.93,0
13.1350,15.93,0
13.1400,15.93,0
13.1450,15.93,0
13.1500,15.93,0
13.1550,-1.42,0
13.1600,12.55,0
13.1650,15.54,0
13.1700,12.55,0
13.1750,-4.97,0
13.1800,-4.97,0
13.1850,11.45,0
13.1900,11.45,0
13.1950,3.21,0
13.2000,3.21,0
13.2050,0.60,0
13.2100,0.60,0
13.2150,-5.16,0
13.2200,-5.16,0
13.2250,12.26,0
13.2300,12.26,0
13.2350,-1.57,0
13.2400,-1.57,0
13.2450,10.41,0
13.2500,19.34,0
13.2550,19.34,0
13.2600,19.34,0
13.2650,-8.81,0
13.2700,-8.81,0
13.2750,2.26,0
13.2800,2.26,0
13.2850,-8.48,0
13.2900,14.61,0
13.2950,14.61,0
13.3000,-6.98,0
13.3050,-6.98,0
13.3100,16.46,0
13.3150,16.46,0
13.3200,1.79,0
13.3250,1.79,0
13.3300,-0.83,0
13.3350,-0.83,0
13.3400,-0.83,0
13.3450,-0.83,0
13.3500,17.91,0
13.3550,17.91,0
13.3600,1.91,0
13.3650,1.91,0
13.3700,1.91,0
13.3750,1.91,0
13.3800,22.77,0
13.3850,22.77,0
13.3900,16.55,0
13.3950,1.80,0
13.4000,1.80,0
13.4050,1.80,0
13.4100,1.80,0
13.4150,1.80,0
13.4200,1.80,0
13.4250,-8.53,0
13.4300,-8.53,0
13.4350,-0.65,0
13.4400,-0.65,0
13.4450,1.07,0
13.4500,1.07,0
13.4550,18.71,0
13.4600,18.71,0
13.4650,13.87,0
13.4700,13.87,0
13.4750,13.87,0
13.4800,13.87,0
13.4850,13.87,0
13.4900,-0.31,0
13.4950,-0.31,0
13.5000,20.37,0
13.5050,20.37,0
13.5100,-8.04,0
13.5150,-8.04,0
13.5200,13.45,0
13.5250,13.45,0
13.5300,-1.59,0
13.5350,17.66,0
13.5400,1.07,0
13.5450,17.66,0
13.5500,-9.18,0
13.5550,-9.18,0
13.5600,2.90,0
13.5650,0.51,0
13.5700,0.51,0
13.5750,0.51,0
13.5800,0.51,0
13.5850,0.51,0
13.5900,-9.56,0
13.5950,-9.56,0
13.6000,-9.56,0
13.6050,-9.56,0
13.6100,1.56,0
13.6150,20.91,0
13.6200,20.91,0
13.6250,1.56,0
13.6300,-6.26,0
13.6350,12.44,0
13.6400,12.44,0
13.6450,2.78,0
13.6500,2.78,0
13.6550,20.42,0
13.6600,1.56,0
13.6650,-9.19,0
13.6700,-9.19,0
13.6750,-9.19,0
13.6800,10.61,0
13.6850,10.61,0
13.6900,5.66,0
13.6950,5.66,1
13.7000,5.66,0
13.7050,-9.46,0
13.7100,-9.46,0
13.7150,14.74,0
13.7200,14.74,0
13.7250,-1.25,0
13.7300,-1.25,0
13.7350,-1.25,0
13.7400,7.33,0
13.7450,16.83,0
13.7500,16.83,0
13.7550,13.44,0
13.7600,13.44,0
13.7650,4.53,0
13.7700,4.53,0
13.7750,-9.19,0
13.7800,21.40,0
13.7850,21.40,0
13.7900,-10.03,0
13.7950,-10.03,0
13.8000,-10.03,0
13.8050,-10.03,0
13.8100,7.43,0
13.8150,7.43,0
13.8200,7.43,0
13.8250,21.99,0
13.8300,21.99,0
13.8350,-8.95,0
13.8400,20.71,0
13.8450,-8.95,0
13.8500,23.36,0
13.8550,23.36,0
13.8600,23.36,0
13.8650,5.25,0
13.8700,5.25,0
13.8750,7.06,0
13.8800,14.15,0
13.8850,19.42,0
13.8900,19.42,0
13.8950,-1.34,0
13.9000,-7.90,0
13.9050,7.75,0
13.9100,7.75,0
13.9150,14.40,0
13.9200,14.40,0
13.9250,14.40,0
13.9300,-8.66,0
13.9350,-8.66,0
13.9400,-3.93,0
13.9450,-3.93,0
13.9500,7.92,0
13.9550,12.02,0
13.9600,12.02,0
13.9650,20.12,0
13.9700,20.12,0
13.9750,20.12,0
13.9800,20.12,0
13.9850,20.12,0
13.9900,7.56,0
13.9950,12.86,0
14.0000,12.86,0
14.0050,21.54,0
14.0100,21.54,0
14.0150,-5.54,0
14.0200,-5.54,0
14.0250,-5.54,0
14.0300,-5.54,0
14.0350,-5.54,0
14.0400,14.25,0
14.0450,14.25,0
14.0500,14.25,0
14.0550,22.07,0
14.0600,14.31,0
14.0650,5.83,0
14.0700,5.83,0
14.0750,5.83,0
14.0800,5.83,0
14.0850,-10.95,0
14.0900,-10.95,0
14.0950,-10.95,0
14.1000,19.52,0
14.1050,19.52,0
14.1100,7.92,0
14.1150,7.92,0
14.1200,14.41,0
14.1250,14.41,0
14.1300,-10.26,0
14.1350,-10.26,0
14.1400,19.43,0
14.1450,19.43,0
14.1500,-3.96,0
14.1550,-3.96,0
14.1600,11.05,0
14.1650,11.05,0
14.1700,-10.10,0
14.1750,-10.10,0
14.1800,18.52,0
14.1850,-2.68,0
14.1900,-2.68,0
14.1950,4.25,0
14.2000,16.05,0
14.2050,14.29,0
14.2100,4.25,0
14.2150,-9.61,0
14.2200,4.25,0
14.2250,5.67,0
14.2300,5.67,0
14.2350,14.82,0
14.2400,14.82,0
14.2450,14.82,0
14.2500,14.82,0
14.2550,19.38,0
14.2600,19.38,0
14.2650,-1.82,0
14.2700,-1.82,0
14.2750,13.72,0
14.2800,13.72,0
14.2850,-8.05,0
14.2900,-8.05,0
14.2950,-8.05,0
14.3000,-8.05,0
14.3050,-2.00,0
14.3100,-2.00,0
14.3150,-2.00,0
14.3200,4.87,0
14.3250,4.87,0
14.3300,-10.74,0
14.3350,-10.74,0
14.3400,18.85,0
14.3450,-3.36,0
14.3500,-3.36,0
14.3550,-3.36,0
14.3600,5.07,0
14.3650,5.07,0
14.3700,-8.06,0
14.3750,15.34,0
14.3800,19.80,0
14.3850,19.80,0
14.3900,-2.64,0
14.3950,-4.02,0
14.4000,1.31,0
14.4050,1.31,0
14.4100,-8.97,0
14.4150,-8.97,0
14.4200,-8.97,0
14.4250,-8.97,0
14.4300,-8.97,0
14.4350,-8.97,0
14.4400,4.54,0
14.4450,4.54,0
14.4500,-10.83,0
14.4550,22.63,0
14.4600,22.63,0
14.4650,22.63,0
14.4700,24.86,0
14.4750,22.63,0
14.4800,4.14,0
14.4850,4.14,0
14.4900,14.68,0
14.4950,14.68,0
14.5000,19.03,0
14.5050,19.03,0
14.5100,-1.45,0
14.5150,-1.45,0
14.5200,-1.45,0
14.5250,11.66,0
14.5300,11.66,0
14.5350,-9.97,0
14.5400,-9.97,0
14.5450,-9.97,0
14.5500,-0.68,0
14.5550,-0.68,0
14.5600,-0.01,0
14.5650,-0.01,0
14.5700,-0.01,0
14.5750,-10.45,0
14.5800,-10.45,0
14.5850,-10.45,0
14.5900,16.10,0
14.5950,-5.66,0
14.6000,2.66,0
14.6050,2.66,0
14.6100,14.85,0
14.6150,14.85,0
14.6200,14.85,0
14.6250,-8.98,0
14.6300,-8.98,0
14.6350,-0.54,0
14.6400,-0.54,0
14.6450,16.81,0
14.6500,16.81,0
14.6550,16.81,0
14.6600,6.67,0
14.6650,6.67,0
14.6700,-6.71,0
14.6750,-6.71,0
14.6800,-6.71,0
14.6850,-6.71,0
14.6900,-6.12,0
14.6950,-6.12,0
14.7000,12.49,0
14.7050,-10.51,0
14.7100,-4.89,0
14.7150,-4.89,0
14.7200,22.92,0
14.7250,-6.32,0
14.7300,-6.32,0
14.7350,14.87,0
14.7400,14.87,0
14.7450,8.22,0
14.7500,8.22,0
14.7550,23.41,0
14.7600,23.41,0
14.7650,-8.39,0
14.7700,13.50,0
14.7750,-8.39,0
14.7800,-8.39,0
14.7850,10.95,0
14.7900,-14.81,0
14.7950,-8.62,0
14.8000,-4.90,0
14.8050,-7.00,0
14.8100,-7.00,0
14.8150,-9.28,0
14.8200,8.73,0
14.8250,8.73,0
14.8300,-6.19,0
14.8350,-6.19,0
14.8400,21.94,0
14.8450,21.94,0
14.8500,8.16,0
14.8550,8.16,0
14.8600,6.64,0
14.8650,6.64,0
14.8700,6.64,0
14.8750,6.64,0
14.8800,23.44,0
14.8850,23.44,0
14.8900,-6.12,0
14.8950,-6.12,0
14.9000,4.14,0
14.9050,4.14,0
14.9100,-8.46,0
14.9150,-8.46,0
